max_apertura.c3d



Time(s):	Emg_1(uV):	Emg_2(uV):	Emg_3(uV):	Emg_4(uV):	Emg_5(uV):
0	-8.05664	-0.60425	-6.94885	-3.32336	2.11487
0.0005	-9.56726	-5.94177	8.7616	-4.22974	1.40991
0.001	-5.74036	-0.10071	10.27222	0.20142	0.30212
0.0015	0.10071	-3.22266	12.38708	-2.71912	6.2439
0.002	1.10779	-3.02124	0.90637	-0.20142	2.5177
0.0025	0.10071	-7.25098	1.3092	7.15027	0.90637
0.003	-9.06372	-8.96301	-5.13611	17.6239	10.67505
0.0035	-5.0354	-16.3147	-2.92053	13.89771	7.35168
0.004	-7.25098	-17.32178	-4.33044	9.06372	6.44531
0.0045	-5.84106	-15.20691	-4.93469	14.60266	3.52478
0.005	-6.64673	-14.40125	-5.13611	6.94885	8.15735
0.0055	-13.797	-15.81116	1.81274	15.20691	8.05664
0.006	-7.04956	-18.02673	-4.73328	13.19275	4.93469
0.0065	-10.37292	-15.20691	-11.07788	16.61682	10.17151
0.007	-22.76001	-6.74744	-12.28638	16.21399	9.36584
0.0075	-24.47205	-13.99841	-7.95593	13.59558	7.75452
0.008	-22.25647	-14.60266	-6.04248	7.75452	10.97717
0.0085	-18.93311	-13.99841	-4.22974	8.56018	12.5885
0.009	-16.51611	-9.16443	-4.73328	3.12195	10.37292
0.0095	-10.57434	-13.19275	-6.94885	4.02832	5.13611
0.01	-7.04956	-9.56726	-8.66089	1.61133	3.32336
0.0105	-1.81274	-7.35168	-16.41541	-7.04956	0.20142
0.011	-9.46655	-4.63257	-9.66797	-9.56726	1.10779
0.0115	-6.14319	1.10779	-8.05664	-7.95593	1.00708
0.012	-2.71912	7.85522	7.35168	-14.19983	3.62549
0.0125	1.3092	9.36584	15.00549	-19.63806	-4.12903
0.013	-0.30212	12.38708	15.81116	-24.67346	0.30212
0.0135	1.91345	11.07788	11.68213	-31.62231	7.04956
0.014	-1.3092	10.67505	16.11328	-32.52869	2.5177
0.0145	-0.70496	15.81116	8.45947	-30.41382	2.11487
0.015	-0.10071	12.5885	10.47363	-37.16125	5.33752
0.0155	0.60425	13.19275	5.84106	-41.39099	3.92761
0.016	9.06372	15.40833	5.74036	-46.62781	2.5177
0.0165	9.76868	12.5885	6.54602	-47.13135	-1.10779
0.017	6.54602	6.74744	13.09204	-37.86621	-2.5177
0.0175	9.36584	21.24939	11.98425	-36.25488	-12.38708
0.018	15.40833	13.59558	3.7262	-23.66638	-20.24231
0.0185	6.44531	10.37292	10.97717	-6.14319	-35.85205
0.019	-0.60425	9.06372	11.58142	13.99841	-43.00232
0.0195	2.5177	3.52478	12.99133	20.94727	-42.09595
0.02	4.53186	2.92053	5.74036	15.50903	-38.87329
0.0205	8.8623	1.81274	-0.50354	17.72461	-25.98267
0.021	8.66089	-3.42407	-8.56018	20.74585	-19.43665
0.0215	3.62549	-3.32336	-5.84106	23.8678	-2.61841
0.022	0.60425	-5.84106	-10.97717	22.86072	7.15027
0.0225	-2.71912	-15.40833	-10.27222	23.8678	13.59558
0.023	0.50354	-7.95593	-9.97009	29.40674	12.28638
0.0235	-10.87646	-7.25098	-15.40833	24.06921	7.35168
0.024	-14.60266	-10.27222	-10.97717	29.80957	15.91187
0.0245	-13.69629	-12.38708	-19.94019	26.68762	15.00549
0.025	-15.81116	-11.48071	-15.40833	22.6593	12.78992
0.0255	-12.18567	-13.19275	-21.04797	23.66638	13.59558
0.026	-16.41541	-13.797	-18.53027	15.40833	10.27222
0.0265	-15.81116	-13.797	-14.40125	20.74585	17.12036
0.027	-24.87488	-12.99133	-12.18567	18.42957	9.66797
0.0275	-16.91895	-11.38	-9.97009	14.90479	5.23682
0.028	-12.38708	-12.38708	-9.06372	16.81824	3.92761
0.0285	-7.5531	-7.45239	-8.35876	11.98425	5.53894
0.029	-1.2085	-12.28638	-5.0354	9.76868	-4.02832
0.0295	-3.22266	-11.58142	-10.87646	9.86938	0.10071
0.03	-7.95593	-6.2439	-7.35168	1.3092	0.30212
0.0305	-6.04248	1.51062	-6.74744	2.71912	-4.43115
0.031	-3.12195	4.22974	4.12903	-2.81982	-3.7262
0.0315	-2.41699	-0.10071	2.31628	-8.25806	-7.75452
0.032	-0.90637	4.12903	4.93469	-8.66089	-14.90479
0.0325	-1.91345	6.2439	7.15027	-10.37292	-13.29346
0.033	2.41699	12.18567	11.2793	-10.17151	-15.30762
0.0335	-8.66089	15.00549	15.20691	-10.77576	-15.1062
0.034	0	16.71753	13.19275	-16.41541	-13.19275
0.0345	3.52478	21.04797	13.59558	-22.45789	-13.09204
0.035	3.92761	18.93311	8.8623	-20.04089	-12.48779
0.0355	4.53186	22.15576	16.21399	-25.47913	-4.12903
0.036	2.92053	25.47913	6.64673	-21.45081	-0.60425
0.0365	6.14319	26.28479	7.5531	-19.63806	-5.43823
0.037	11.68213	15.1062	11.07788	-14.80408	6.04248
0.0375	13.89771	11.48071	5.43823	-17.6239	2.31628
0.038	12.48779	6.2439	4.53186	-14.40125	6.64673
0.0385	-2.92053	10.37292	4.22974	-16.91895	9.36584
0.039	-4.33044	2.5177	-3.8269	-7.75452	10.0708
0.0395	-4.33044	-1.61133	-2.5177	-7.35168	16.11328
0.04	0.20142	-4.33044	-1.51062	-0.30212	7.45239
0.0405	-0.70496	-7.04956	-7.95593	0.10071	8.7616
0.041	2.81982	-10.67505	-5.23682	1.71204	3.62549
0.0415	-9.16443	-12.08496	-11.2793	-0.10071	0.70496
0.042	-9.16443	-10.57434	-6.3446	4.83398	5.13611
0.0425	-6.14319	-14.19983	-10.0708	5.43823	2.5177
0.043	-8.7616	-19.23523	-10.57434	8.8623	-0.60425
0.0435	-9.46655	-24.47205	-13.29346	10.57434	2.01416
0.044	-6.04248	-11.88354	-7.35168	15.81116	-1.40991
0.0445	-5.94177	-13.49487	-8.25806	11.78284	-6.3446
0.045	2.31628	-16.81824	-9.56726	15.50903	-5.74036
0.0455	-1.51062	-18.02673	-11.2793	6.84814	-11.78284
0.046	-6.54602	-18.22815	-13.19275	20.84656	-7.65381
0.0465	-11.58142	-19.23523	-4.12903	21.04797	-4.53186
0.047	-8.56018	-17.12036	-8.25806	19.33594	-9.16443
0.0475	-10.57434	-15.1062	-0.50354	15.40833	-7.5531
0.048	-10.47363	-14.09912	-2.71912	15.30762	-3.7262
0.0485	-9.46655	-12.18567	-5.94177	11.98425	-3.12195
0.049	-8.8623	-14.40125	-4.12903	8.7616	6.74744
0.0495	-11.48071	-12.99133	-8.96301	-8.35876	2.11487
0.05	0	-11.58142	-8.7616	-10.57434	6.64673
0.0505	-5.94177	-3.02124	-2.61841	-20.04089	3.92761
0.051	-2.5177	-10.27222	-4.73328	-23.56567	7.65381
0.0515	-3.12195	-8.35876	-1.91345	-25.98267	0.20142
0.052	6.14319	-7.65381	5.53894	-27.99683	0.10071
0.0525	7.65381	-11.17859	0.30212	-20.04089	4.73328
0.053	9.86938	-5.23682	-0.90637	-23.26355	4.22974
0.0535	2.71912	-4.22974	2.81982	-21.3501	10.67505
0.054	2.11487	-7.04956	-1.3092	-5.94177	3.7262
0.0545	6.84814	-2.01416	-5.43823	2.31628	8.66089
0.055	6.94885	-2.11487	-2.81982	4.43115	1.71204
0.0555	9.97009	5.94177	11.38	-4.02832	2.61841
0.056	6.3446	7.15027	4.22974	-6.84814	-3.52478
0.0565	7.45239	6.94885	10.87646	-9.56726	-10.47363
0.057	-1.40991	12.48779	8.66089	-5.63965	-14.70337
0.0575	-6.14319	13.99841	5.53894	-4.73328	-3.92761
0.058	-1.51062	9.36584	1.91345	-9.36584	-0.70496
0.0585	-5.53894	-0.20142	0.80566	-10.57434	-1.61133
0.059	-12.08496	-3.12195	1.81274	-4.53186	-12.08496
0.0595	-0.80566	-0.70496	10.0708	0	-8.96301
0.06	2.31628	1.10779	8.96301	-1.2085	-7.75452
0.0605	-2.5177	3.62549	-1.40991	-0.80566	-8.56018
0.061	-3.62549	0.50354	-6.74744	1.81274	-3.32336
0.0615	-5.43823	-2.41699	-7.95593	-3.22266	-4.83398
0.062	-7.35168	-1.71204	-9.66797	7.15027	-3.12195
0.0625	-3.32336	-3.42407	-10.17151	15.30762	0
0.063	-1.51062	-2.92053	-11.58142	16.61682	0.20142
0.0635	-7.75452	-6.2439	-11.48071	13.59558	-2.31628
0.064	-10.97717	-10.57434	-12.18567	13.49487	0.80566
0.0645	-5.23682	-7.75452	-8.56018	17.6239	2.92053
0.065	-4.53186	-8.66089	-12.38708	12.18567	8.35876
0.0655	-4.63257	-16.21399	-11.58142	15.91187	1.81274
0.066	-4.12903	-13.39417	-12.38708	10.17151	7.95593
0.0665	1.51062	-22.05505	-17.52319	17.82532	0.10071
0.067	-5.74036	-20.34302	-19.33594	18.12744	11.88354
0.0675	-2.5177	-16.41541	-13.39417	18.63098	8.45947
0.068	1.61133	-17.01965	-6.2439	12.68921	10.97717
0.0685	-6.84814	-16.51611	-16.01257	9.76868	17.42249
0.069	-5.13611	-12.5885	-8.45947	0.50354	3.02124
0.0695	-12.38708	-8.96301	-4.22974	2.31628	3.12195
0.07	-9.26514	-8.7616	-5.74036	-3.52478	0.70496
0.0705	-6.94885	-6.64673	-4.22974	-0.90637	-8.96301
0.071	-6.94885	-5.43823	-5.63965	-4.33044	-11.88354
0.0715	-3.52478	-3.12195	0.90637	-11.88354	-16.81824
0.072	-2.71912	2.92053	-0.80566	-15.40833	-16.41541
0.0725	-3.52478	5.13611	5.53894	-15.00549	-18.8324
0.073	-3.7262	4.33044	4.93469	-17.22107	-17.01965
0.0735	-3.7262	4.33044	0.70496	-19.03381	-18.02673
0.074	-3.32336	7.04956	6.64673	-27.09045	-17.22107
0.0745	-4.93469	11.48071	11.2793	-28.80249	-13.99841
0.075	-1.91345	10.77576	6.54602	-30.01099	-10.0708
0.0755	5.94177	9.76868	8.96301	-21.65222	-0.50354
0.076	-0.70496	5.94177	8.15735	-4.73328	21.55151
0.0765	0.60425	3.7262	7.75452	-6.04248	25.177
0.077	4.93469	6.84814	3.02124	-4.33044	19.03381
0.0775	0.40283	7.25098	-3.02124	-10.37292	11.88354
0.078	-3.52478	7.15027	-7.25098	-10.17151	21.14868
0.0785	-0.40283	10.37292	-12.89062	-2.92053	17.42249
0.079	-4.12903	2.21558	-15.30762	3.42407	16.41541
0.0795	-2.5177	0.50354	-10.57434	4.43115	10.37292
0.08	2.71912	-6.2439	-7.75452	-2.31628	15.60974
0.0805	-4.53186	-4.93469	-4.22974	8.35876	7.45239
0.081	-1.10779	-4.12903	5.0354	0.30212	-1.3092
0.0815	10.47363	-8.35876	5.63965	4.83398	-5.23682
0.082	1.3092	-8.56018	-0.30212	-0.90637	-10.17151
0.0825	7.04956	-8.35876	-6.94885	1.71204	-5.74036
0.083	7.75452	-6.94885	-7.65381	9.76868	-10.37292
0.0835	3.52478	-7.95593	-15.40833	13.39417	-14.90479
0.084	3.92761	-10.57434	-9.46655	10.37292	-21.95435
0.0845	2.31628	-16.71753	-11.68213	9.86938	-23.46497
0.085	7.65381	-12.38708	-13.797	11.38	-26.3855
0.0855	2.61841	-14.19983	-11.07788	21.85364	-26.18408
0.086	0.10071	-11.48071	-15.1062	18.42957	-33.53577
0.0865	5.53894	-14.80408	-10.77576	6.44531	-47.23206
0.087	7.75452	-18.42957	-10.97717	8.7616	-39.57825
0.0875	2.5177	-12.89062	-15.91187	7.5531	-32.42798
0.088	2.21558	-18.63098	-11.78284	11.98425	-14.70337
0.0885	-5.53894	-13.19275	-10.27222	3.92761	-4.73328
0.089	-9.06372	-7.35168	-4.53186	2.71912	-5.13611
0.0895	-11.58142	-4.63257	-6.74744	0.10071	9.76868
0.09	-10.97717	-4.02832	-8.15735	8.45947	29.91028
0.0905	-16.01257	-4.12903	-2.01416	10.97717	29.30603
0.091	-31.4209	-0.10071	2.41699	8.8623	23.96851
0.0915	-20.64514	0.30212	0.30212	2.5177	19.63806
0.092	-13.49487	1.81274	4.33044	-0.30212	9.16443
0.0925	-10.87646	4.93469	6.14319	1.10779	4.83398
0.093	-14.50195	2.81982	4.12903	0.70496	-2.31628
0.0935	-12.68921	6.74744	0.70496	-1.10779	-13.49487
0.094	-10.87646	-0.30212	8.7616	-7.15027	-14.80408
0.0945	-14.19983	6.74744	12.08496	-24.97559	6.44531
0.095	-10.37292	7.5531	12.18567	-45.3186	21.45081
0.0955	-11.98425	10.87646	6.84814	-67.47437	27.29187
0.096	-13.49487	14.19983	6.84814	-57.70569	21.65222
0.0965	-16.41541	15.20691	6.44531	-44.51294	22.05505
0.097	-14.30054	12.28638	5.0354	-34.14001	12.08496
0.0975	-10.87646	11.98425	12.28638	-26.08337	5.23682
0.098	-9.06372	6.04248	12.5885	-32.12585	8.35876
0.0985	-6.84814	-0.60425	6.74744	-23.76709	8.35876
0.099	-5.53894	4.22974	7.75452	-18.02673	9.97009
0.0995	-2.5177	-2.21558	1.3092	-10.77576	12.68921
0.1	-11.38	3.32336	-11.88354	-1.00708	14.70337
0.1005	-16.61682	0.30212	-9.46655	9.36584	4.43115
0.101	-11.2793	3.92761	-13.69629	20.04089	-14.50195
0.1015	-9.16443	1.3092	-23.36426	15.60974	-23.8678
0.102	-11.98425	-3.62549	-13.29346	15.60974	-23.8678
0.1025	-4.93469	-8.25806	-4.63257	16.11328	-26.78833
0.103	0	-10.67505	-2.71912	10.37292	-20.74585
0.1035	7.85522	-8.66089	-7.5531	11.38	-21.75293
0.104	-1.10779	-22.15576	-10.77576	11.07788	-15.00549
0.1045	-9.16443	-21.85364	-13.89771	20.64514	-14.50195
0.105	-5.74036	-15.81116	-14.09912	20.24231	-12.78992
0.1055	-4.33044	-16.71753	-17.01965	10.97717	-9.16443
0.106	-2.11487	-13.19275	-13.59558	13.49487	-11.98425
0.1065	-2.92053	-12.38708	-8.35876	10.77576	0.20142
0.107	-6.44531	-17.72461	-1.10779	13.49487	-2.5177
0.1075	-4.53186	-21.85364	-8.96301	9.76868	2.92053
0.108	-7.5531	-8.15735	-0.50354	7.15027	7.5531
0.1085	-7.65381	-6.3446	-5.74036	-5.94177	8.15735
0.109	-8.7616	-6.94885	-5.74036	-12.38708	13.69629
0.1095	-1.91345	-2.21558	-7.5531	-9.76868	15.40833
0.11	0.80566	-0.90637	-0.70496	-25.177	17.82532
0.1105	-3.92761	-6.3446	0.50354	-26.08337	17.72461
0.111	-2.21558	-5.0354	1.81274	-19.63806	19.13452
0.1115	0.40283	-2.01416	6.84814	-22.05505	13.29346
0.112	0.70496	-0.10071	-7.35168	-14.60266	11.38
0.1125	-5.74036	0.20142	1.40991	-12.48779	13.49487
0.113	-6.04248	3.92761	2.81982	-22.05505	14.60266
0.1135	0.30212	7.25098	-5.74036	-12.38708	10.17151
0.114	-7.25098	11.48071	-6.2439	-13.19275	1.10779
0.1145	-10.17151	6.64673	-0.10071	-0.70496	-2.92053
0.115	0.30212	8.7616	12.89062	7.25098	-0.30212
0.1155	0.80566	0.30212	14.80408	11.68213	-3.02124
0.116	-2.92053	2.5177	7.45239	9.86938	3.52478
0.1165	-0.70496	1.91345	0.50354	-0.90637	-0.30212
0.117	-5.43823	-0.40283	0.70496	-1.71204	10.0708
0.1175	-3.32336	-1.61133	5.23682	-14.60266	12.78992
0.118	-1.91345	-1.10779	-0.20142	-5.13611	15.00549
0.1185	-3.12195	1.2085	-1.51062	0.10071	11.07788
0.119	-1.40991	6.74744	-1.10779	-3.52478	7.15027
0.1195	-1.71204	7.35168	-1.40991	7.15027	9.76868
0.12	-4.12903	5.74036	-6.54602	9.97009	3.32336
0.1205	-15.91187	3.92761	-4.83398	12.18567	-17.82532
0.121	-15.30762	-8.56018	-7.75452	16.61682	-30.2124
0.1215	-11.78284	-3.12195	-14.19983	17.12036	-29.40674
0.122	-7.75452	-9.66797	-14.09912	12.28638	-24.87488
0.1225	-10.17151	-11.17859	-7.35168	9.36584	-27.49329
0.123	-5.53894	-3.7262	-8.45947	11.07788	-25.68054
0.1235	-2.11487	-1.51062	-12.48779	14.40125	-24.87488
0.124	-4.83398	-8.8623	-6.2439	22.15576	-20.74585
0.1245	-7.15027	-7.95593	-9.56726	19.13452	-16.01257
0.125	-14.50195	-12.99133	-10.57434	26.98975	-8.96301
0.1255	-7.35168	-16.41541	-13.29346	21.04797	-5.43823
0.126	-9.97009	-16.81824	-18.8324	16.81824	-8.66089
0.1265	-13.19275	-12.78992	-16.41541	17.01965	-9.56726
0.127	-3.22266	-17.92603	-12.78992	23.36426	-14.40125
0.1275	-6.74744	-13.797	-18.32886	11.17859	-10.47363
0.128	-6.54602	-5.43823	-8.7616	17.32178	-11.78284
0.1285	-4.12903	-7.35168	-7.85522	11.88354	-16.11328
0.129	1.10779	0.30212	-4.02832	-0.10071	-18.63098
0.1295	4.63257	3.52478	-5.13611	2.81982	-16.01257
0.13	8.7616	8.8623	-11.58142	-0.10071	-20.24231
0.1305	4.83398	9.06372	-4.22974	-2.01416	-19.83948
0.131	12.48779	2.01416	-5.74036	-6.14319	-21.85364
0.1315	5.63965	3.62549	-2.71912	2.21558	-16.71753
0.132	-2.11487	13.59558	7.75452	-8.96301	-13.39417
0.1325	-0.10071	9.46655	6.14319	-8.56018	-8.96301
0.133	-9.86938	8.35876	4.93469	-12.38708	-5.63965
0.1335	-4.02832	7.25098	5.94177	-13.99841	-1.81274
0.134	-2.61841	6.54602	-0.20142	-14.19983	2.31628
0.1345	-2.41699	1.71204	5.33752	-15.1062	3.92761
0.135	2.5177	2.31628	-0.40283	-20.24231	7.5531
0.1355	3.22266	11.38	0.90637	-14.80408	4.53186
0.136	-4.02832	11.07788	2.81982	-15.60974	0.70496
0.1365	-7.5531	9.06372	10.77576	-17.52319	-1.3092
0.137	8.45947	11.98425	7.15027	-16.11328	-2.31628
0.1375	14.19983	7.85522	5.13611	-20.94727	-5.33752
0.138	14.90479	7.35168	-1.10779	-15.20691	-5.63965
0.1385	3.7262	1.81274	-0.90637	-16.41541	-3.12195
0.139	-1.3092	5.53894	3.8269	-9.97009	3.22266
0.1395	-2.41699	6.64673	-3.12195	-8.05664	1.10779
0.14	-0.90637	5.33752	-4.12903	-5.94177	7.15027
0.1405	-10.87646	9.36584	-7.95593	1.91345	4.53186
0.141	-8.56018	6.54602	-8.7616	1.2085	1.61133
0.1415	-12.18567	1.81274	-11.88354	2.71912	4.73328
0.142	-17.12036	-4.12903	-10.77576	2.61841	6.14319
0.1425	-16.71753	-3.12195	-12.48779	13.49487	10.17151
0.143	-13.59558	-0.10071	-15.40833	9.76868	4.33044
0.1435	-10.57434	-7.75452	-7.65381	12.89062	4.53186
0.144	-15.40833	-15.00549	-10.57434	7.35168	4.83398
0.1445	-18.63098	-9.06372	-15.30762	8.15735	5.0354
0.145	-18.02673	-7.75452	-10.67505	11.68213	3.52478
0.1455	-17.01965	-20.64514	-2.31628	15.40833	1.40991
0.146	-13.99841	-22.55859	3.02124	13.39417	-1.71204
0.1465	-17.52319	-23.8678	7.35168	17.42249	-4.73328
0.147	-13.99841	-29.91028	4.43115	18.53027	-2.21558
0.1475	-8.45947	-25.78125	2.41699	6.94885	-0.70496
0.148	-7.85522	-15.81116	-0.50354	9.16443	-3.12195
0.1485	-12.78992	-8.7616	-6.64673	2.5177	-0.40283
0.149	-6.14319	-5.23682	-13.89771	5.63965	-1.40991
0.1495	-1.10779	-4.43115	-26.08337	6.84814	1.3092
0.15	-0.10071	-15.1062	-23.46497	-5.43823	3.52478
0.1505	1.2085	-12.18567	-19.94019	-5.33752	5.43823
0.151	1.40991	-11.2793	-16.41541	-4.22974	-1.61133
0.1515	3.42407	-10.37292	-11.98425	-10.57434	5.0354
0.152	11.88354	-6.04248	3.7262	-10.57434	1.81274
0.1525	1.51062	-0.70496	11.48071	-24.87488	3.22266
0.153	1.10779	5.53894	13.69629	-23.96851	-3.12195
0.1535	-5.33752	4.93469	14.60266	-23.16284	-4.53186
0.154	-2.31628	10.17151	15.00549	-33.03223	-8.96301
0.1545	-0.70496	8.7616	13.19275	-32.32727	-7.95593
0.155	-6.14319	6.54602	10.67505	-34.34143	-4.53186
0.1555	-5.13611	18.63098	10.17151	-40.88745	-7.45239
0.156	-3.62549	23.36426	7.15027	-41.39099	-5.43823
0.1565	-2.5177	19.03381	6.44531	-35.75134	-5.23682
0.157	-0.50354	17.92603	-5.84106	-9.06372	5.53894
0.1575	-5.74036	17.42249	0.50354	3.8269	11.07788
0.158	-8.45947	19.33594	0.70496	10.97717	1.00708
0.1585	-4.12903	14.80408	-5.43823	8.7616	-1.51062
0.159	-9.16443	7.5531	-2.5177	12.99133	-9.66797
0.1595	-6.44531	4.53186	-2.92053	18.63098	-4.53186
0.16	-13.69629	-0.50354	1.71204	5.33752	-5.0354
0.1605	-15.40833	-8.15735	7.75452	10.37292	-2.31628
0.161	-8.05664	-1.51062	-4.73328	6.04248	4.83398
0.1615	-4.43115	-13.59558	-6.44531	3.02124	11.98425
0.162	-0.80566	-19.23523	-10.57434	10.27222	9.06372
0.1625	4.73328	-22.05505	-11.78284	7.15027	11.38
0.163	11.48071	-21.65222	-4.33044	13.99841	13.29346
0.1635	18.02673	-23.56567	-7.35168	17.12036	8.7616
0.164	13.39417	-21.45081	-10.47363	7.04956	10.67505
0.1645	11.17859	-22.15576	-9.97009	14.30054	11.17859
0.165	10.37292	-24.77417	-12.38708	14.60266	4.33044
0.1655	2.61841	-17.01965	-8.35876	11.48071	-2.41699
0.166	-1.51062	-16.01257	-14.80408	13.59558	2.71912
0.1665	5.43823	-16.81824	-17.12036	15.40833	-2.71912
0.167	4.73328	-26.58691	-9.16443	14.60266	3.32336
0.1675	7.75452	-19.83948	-10.77576	12.89062	2.01416
0.168	2.71912	-22.05505	-1.40991	11.78284	5.0354
0.1685	-3.22266	-24.37134	-10.17151	7.35168	2.71912
0.169	0.10071	-13.89771	-8.96301	8.45947	0.10071
0.1695	-1.10779	-13.89771	-4.53186	1.91345	10.87646
0.17	-4.33044	-9.36584	-5.53894	5.74036	4.53186
0.1705	-0.90637	-9.86938	-7.35168	-6.04248	4.43115
0.171	2.31628	-6.3446	-5.0354	-4.83398	3.52478
0.1715	3.22266	-4.93469	-0.10071	-3.22266	-0.70496
0.172	-6.94885	-0.50354	-2.61841	-15.00549	0.80566
0.1725	-1.10779	-5.53894	-2.5177	-11.98425	-2.71912
0.173	-2.41699	1.91345	0.10071	-27.19116	4.33044
0.1735	-0.80566	2.92053	7.15027	-28.9032	-1.10779
0.174	4.93469	10.17151	11.78284	-27.6947	-2.5177
0.1745	-0.70496	6.84814	13.797	-31.01807	-2.71912
0.175	0.80566	7.45239	14.80408	-29.30603	-6.14319
0.1755	0.50354	5.0354	14.30054	-27.09045	-8.8623
0.176	-0.70496	4.93469	13.09204	-18.02673	-9.26514
0.1765	-2.5177	12.48779	10.77576	-4.53186	-14.19983
0.177	-4.53186	9.86938	14.40125	-2.5177	-3.22266
0.1775	-10.37292	20.24231	9.86938	-0.70496	-4.12903
0.178	-8.96301	17.92603	9.06372	-0.90637	-6.14319
0.1785	-7.04956	8.15735	8.25806	-5.0354	-13.797
0.179	-5.84106	11.98425	2.41699	1.00708	-13.09204
0.1795	-10.17151	6.84814	7.65381	7.35168	-4.83398
0.18	-15.1062	8.15735	-0.20142	3.7262	-21.24939
0.1805	-4.22974	5.53894	3.92761	0.10071	-31.21948
0.181	-8.56018	2.81982	-4.53186	8.35876	-33.13293
0.1815	-4.12903	2.81982	7.5531	2.5177	-36.55701
0.182	-4.12903	-4.33044	3.52478	7.45239	-25.68054
0.1825	1.10779	-5.84106	-5.63965	12.18567	-15.1062
0.183	-0.60425	-7.35168	-11.78284	9.86938	-5.84106
0.1835	-2.01416	-9.06372	-14.40125	13.59558	3.32336
0.184	-3.52478	-21.65222	-14.09912	22.35718	20.04089
0.1845	-0.90637	-27.19116	-13.797	17.42249	24.27063
0.185	-4.83398	-24.47205	-10.37292	18.22815	22.76001
0.1855	-10.27222	-24.27063	-17.12036	14.50195	23.26355
0.186	-5.94177	-24.27063	-8.66089	19.13452	21.04797
0.1865	-12.68921	-24.47205	-6.64673	20.04089	20.24231
0.187	-11.68213	-21.85364	-7.85522	14.30054	15.91187
0.1875	-15.50903	-18.93311	-6.14319	13.99841	18.63098
0.188	-9.56726	-17.6239	-5.13611	8.96301	15.20691
0.1885	0.50354	-16.71753	-10.17151	11.48071	3.42407
0.189	-2.92053	-6.74744	-6.74744	7.5531	-0.10071
0.1895	0	-5.13611	-6.04248	2.11487	-9.97009
0.19	-2.21558	0.80566	-5.63965	-0.30212	-2.11487
0.1905	-3.52478	-3.42407	-5.94177	0.20142	-2.11487
0.191	-7.35168	1.91345	-0.70496	1.71204	-0.70496
0.1915	-7.75452	3.7262	-2.92053	-6.2439	-6.54602
0.192	-1.71204	3.92761	-0.90637	-9.36584	-4.83398
0.1925	-5.33752	7.15027	4.33044	-17.6239	-10.47363
0.193	-3.42407	10.37292	4.83398	-12.48779	-5.33752
0.1935	-1.51062	13.19275	11.78284	-18.8324	-14.80408
0.194	-2.71912	13.89771	15.00549	-19.83948	-4.43115
0.1945	-2.92053	9.36584	10.77576	-13.797	-10.87646
0.195	-5.63965	11.68213	10.87646	-12.99133	-9.46655
0.1955	-9.56726	7.15027	10.57434	-13.49487	-7.35168
0.196	-13.59558	11.98425	7.5531	-18.8324	-7.15027
0.1965	-8.45947	10.0708	5.33752	-27.29187	-3.12195
0.197	-2.11487	5.33752	8.96301	-25.27771	6.74744
0.1975	5.94177	7.45239	4.73328	-28.09753	5.53894
0.198	-5.13611	2.11487	3.22266	-26.68762	9.86938
0.1985	-1.51062	-0.40283	7.45239	-19.83948	5.33752
0.199	2.5177	-3.92761	8.96301	-14.80408	13.89771
0.1995	-2.31628	-3.12195	2.92053	-19.33594	12.5885
0.2	0.40283	3.92761	-1.51062	-7.35168	16.3147
0.2005	-3.22266	-4.12903	-5.94177	-12.68921	21.14868
0.201	0.20142	-6.74744	-3.92761	-11.98425	21.65222
0.2015	-1.51062	-4.73328	-9.06372	-10.27222	18.8324
0.202	-0.30212	-7.85522	-5.33752	-0.30212	20.64514
0.2025	-1.81274	-16.11328	-11.17859	7.5531	12.5885
0.203	-3.7262	-15.30762	-12.68921	17.42249	18.8324
0.2035	-2.61841	-10.97717	-6.74744	11.07788	10.87646
0.204	-5.13611	-13.797	-18.22815	11.58142	10.0708
0.2045	-9.86938	-15.00549	-18.02673	16.91895	15.71045
0.205	-10.27222	-17.42249	-21.04797	24.27063	11.48071
0.2055	-10.77576	-18.73169	-25.88196	28.29895	0.60425
0.206	-7.5531	-20.94727	-28.29895	32.22656	-13.09204
0.2065	-2.21558	-24.87488	-9.06372	44.0094	-18.32886
0.207	-2.31628	-22.55859	-3.92761	40.68604	-16.51611
0.2075	-3.8269	-23.66638	-6.04248	39.67896	-23.76709
0.208	-5.13611	-18.73169	-4.73328	30.41382	-18.8324
0.2085	-11.68213	-7.45239	-10.17151	29.20532	-14.90479
0.209	-9.16443	-5.84106	-12.48779	24.37134	-21.3501
0.2095	-4.12903	-13.69629	-7.35168	28.29895	-15.91187
0.21	-2.41699	-12.18567	-15.00549	26.08337	-23.66638
0.2105	0.40283	-13.99841	-6.54602	32.22656	-33.9386
0.211	-2.61841	-5.84106	-4.93469	21.45081	-33.63647
0.2115	-7.95593	3.32336	-0.30212	-9.16443	-20.24231
0.212	-1.40991	0.50354	11.38	-37.26196	-11.48071
0.2125	-1.71204	4.02832	20.64514	-45.52002	3.92761
0.213	4.12903	16.3147	15.00549	-35.34851	9.97009
0.2135	7.04956	18.63098	-3.7262	-37.06055	9.36584
0.214	3.7262	10.57434	5.74036	-38.16833	14.50195
0.2145	-4.33044	-2.21558	17.52319	-31.11877	11.58142
0.215	-7.5531	4.73328	12.18567	-36.35559	22.45789
0.2155	-8.35876	2.41699	16.11328	-21.75293	26.48621
0.216	3.92761	7.5531	19.83948	-24.97559	16.71753
0.2165	1.51062	8.8623	17.12036	-23.66638	11.2793
0.217	-1.40991	15.40833	14.50195	-18.73169	7.85522
0.2175	0.40283	9.36584	14.09912	-6.54602	-3.32336
0.218	0.20142	4.93469	10.77576	-0.90637	-25.88196
0.2185	-3.12195	5.23682	7.45239	3.7262	-37.36267
0.219	1.10779	-0.60425	14.90479	-7.15027	-42.19666
0.2195	0.50354	-1.91345	9.26514	-7.65381	-39.17542
0.22	5.33752	2.81982	2.61841	-3.52478	-29.60815
0.2205	2.92053	-3.62549	-5.43823	-4.63257	-30.31311
0.221	-0.70496	-5.94177	-5.74036	3.7262	-23.66638
0.2215	0.70496	-10.57434	-5.0354	5.33752	-16.91895
0.222	-1.40991	-12.78992	0.80566	5.74036	-15.20691
0.2225	-5.13611	-6.94885	5.33752	8.66089	-12.68921
0.223	-12.5885	-5.53894	6.14319	8.56018	-7.45239
0.2235	-12.18567	-8.35876	9.16443	8.15735	-6.2439
0.224	-6.84814	-0.80566	7.35168	2.01416	-3.22266
0.2245	-12.68921	-3.52478	-3.12195	-1.00708	-2.71912
0.225	-7.35168	-6.94885	-0.50354	-8.7616	6.94885
0.2255	-13.29346	-15.50903	-3.02124	-15.40833	4.93469
0.226	-16.91895	-18.12744	-16.01257	-19.03381	16.91895
0.2265	-17.12036	-9.56726	-24.16992	-13.19275	20.74585
0.227	-15.91187	-18.8324	-27.19116	-6.44531	24.87488
0.2275	-8.35876	-18.73169	-31.92444	14.09912	28.39966
0.228	-10.77576	-19.03381	-24.87488	23.46497	39.17542
0.2285	-2.11487	-7.15027	-2.61841	17.52319	48.54126
0.229	-2.21558	-2.31628	3.52478	25.27771	38.974
0.2295	-7.25098	13.59558	-4.53186	21.24939	6.84814
0.23	-3.02124	5.13611	-0.70496	24.47205	-16.81824
0.2305	-7.45239	-4.02832	8.45947	24.67346	-26.88904
0.231	-9.86938	4.83398	11.78284	1.40991	-29.60815
0.2315	-7.5531	-0.80566	11.38	2.41699	-22.45789
0.232	-6.2439	5.53894	14.70337	-7.45239	-21.04797
0.2325	-5.74036	2.31628	19.03381	-6.84814	-13.49487
0.233	-7.75452	3.22266	26.08337	-7.5531	-10.97717
0.2335	-5.13611	10.77576	22.86072	-7.35168	-6.04248
0.234	-12.78992	11.68213	20.24231	-9.86938	-4.22974
0.2345	-5.53894	13.39417	15.71045	-9.97009	-6.84814
0.235	-5.63965	18.32886	9.06372	-13.29346	-5.13611
0.2355	-9.86938	16.81824	6.94885	-11.2793	-6.3446
0.236	-7.5531	19.83948	9.66797	-8.66089	-0.90637
0.2365	-7.5531	25.88196	8.56018	-6.74744	1.00708
0.237	-7.5531	23.46497	0.50354	-4.73328	1.61133
0.2375	-7.5531	21.04797	4.73328	-7.35168	2.92053
0.238	-7.5531	25.47913	6.74744	-12.5885	2.11487
0.2385	-7.5531	20.74585	9.36584	-9.56726	-2.21558
0.239	-7.5531	13.797	2.31628	-4.12903	-0.10071
0.2395	-7.5531	8.05664	1.51062	-2.31628	1.61133
0.24	-7.5531	2.11487	7.04956	-1.91345	-0.30212
0.2405	-7.5531	0.60425	8.56018	0.90637	0.70496
0.241	-7.5531	-9.56726	10.57434	0.60425	4.33044
0.2415	-7.5531	-16.01257	6.74744	1.3092	-1.00708
0.242	-7.5531	-1.10779	-15.20691	8.05664	-2.31628
0.2425	-7.5531	5.33752	-26.28479	15.91187	-3.52478
0.243	-7.5531	-5.74036	-31.11877	12.99133	0.10071
0.2435	-7.15027	-8.25806	-15.71045	13.19275	0.50354
0.244	-6.54602	-7.65381	-3.12195	12.99133	-6.74744
0.2445	-0.50354	-11.58142	-1.71204	16.61682	-0.10071
0.245	-2.71912	-7.95593	-2.01416	19.03381	-5.23682
0.2455	-5.74036	-16.91895	-1.91345	17.22107	1.81274
0.246	-14.19983	-25.07629	5.33752	24.06921	9.97009
0.2465	-10.57434	-26.68762	1.61133	24.47205	10.0708
0.247	-17.72461	-28.29895	3.32336	16.61682	4.53186
0.2475	-9.86938	-15.30762	-7.15027	13.89771	3.7262
0.248	-5.74036	-15.60974	-4.33044	12.99133	1.00708
0.2485	2.41699	-17.22107	-12.38708	5.84106	4.02832
0.249	11.48071	-19.43665	-11.07788	5.84106	0.10071
0.2495	6.64673	-10.87646	-8.35876	4.73328	-1.2085
0.25	10.47363	-18.73169	-1.81274	2.31628	-0.70496
0.2505	8.25806	-8.7616	-1.40991	-3.32336	-0.20142
0.251	5.13611	-10.47363	-0.40283	-5.74036	-6.14319
0.2515	8.05664	-11.68213	-3.7262	-9.16443	-10.17151
0.252	9.46655	-8.15735	-7.85522	-12.28638	-3.8269
0.2525	9.86938	-7.75452	0.10071	-14.09912	-1.81274
0.253	6.44531	-0.60425	2.81982	-21.95435	-0.20142
0.2535	0.70496	-2.5177	15.81116	-22.15576	-3.52478
0.254	8.45947	11.98425	16.61682	-20.74585	-1.3092
0.2545	9.36584	19.73877	17.42249	-22.45789	-3.32336
0.255	3.62549	18.12744	12.99133	-18.53027	-2.61841
0.2555	3.32336	21.14868	6.14319	-13.19275	-3.52478
0.256	-0.40283	18.02673	10.77576	-21.65222	-6.3446
0.2565	-3.8269	14.60266	5.94177	-19.23523	0.20142
0.257	-5.53894	12.38708	1.71204	-22.35718	-6.64673
0.2575	5.13611	20.1416	-5.53894	-17.72461	-6.94885
0.258	-1.10779	9.06372	-3.92761	-5.84106	-9.16443
0.2585	2.41699	5.23682	-7.85522	-15.81116	-4.43115
0.259	11.88354	12.89062	7.75452	-9.56726	-1.2085
0.2595	10.37292	11.98425	21.65222	-1.71204	-2.71912
0.26	7.25098	0.10071	24.27063	-0.90637	-0.70496
0.2605	6.44531	7.35168	12.5885	-4.33044	-4.12903
0.261	6.84814	4.53186	7.04956	1.3092	-7.75452
0.2615	5.94177	1.71204	0.30212	3.62549	-6.64673
0.262	12.78992	3.22266	0.50354	7.25098	-0.10071
0.2625	5.0354	0	-0.80566	9.46655	-7.5531
0.263	7.65381	3.62549	-2.81982	8.56018	-4.53186
0.2635	12.5885	-0.90637	-7.85522	6.54602	-0.30212
0.264	7.25098	-8.35876	-15.91187	12.5885	-1.00708
0.2645	4.22974	-13.59558	-16.61682	19.43665	0.90637
0.265	-4.53186	-15.20691	-17.6239	19.94019	-3.02124
0.2655	-10.17151	-8.7616	-15.00549	13.49487	-0.20142
0.266	-13.797	-6.3446	-4.53186	19.23523	-3.92761
0.2665	-24.37134	-0.80566	-3.8269	9.97009	0.90637
0.267	-25.47913	3.52478	-2.71912	10.37292	-1.81274
0.2675	-27.89612	8.8623	-10.37292	5.84106	-5.53894
0.268	-28.39966	8.7616	-13.49487	8.96301	-7.04956
0.2685	-30.2124	4.22974	0.90637	5.53894	-4.63257
0.269	-30.61523	2.71912	3.22266	6.54602	-7.5531
0.2695	-27.59399	-9.56726	0.60425	-0.50354	-3.52478
0.27	-23.56567	-4.33044	-5.33752	-7.35168	-2.31628
0.2705	-22.86072	-1.51062	-3.52478	-5.0354	-2.92053
0.271	-16.71753	1.3092	-7.15027	-5.84106	5.53894
0.2715	-9.46655	7.5531	2.11487	-14.30054	2.5177
0.272	-5.13611	-4.12903	-1.10779	-13.797	1.00708
0.2725	-3.7262	-1.2085	5.33752	-9.46655	-0.30212
0.273	-10.47363	9.76868	4.63257	-19.83948	5.13611
0.2735	-13.39417	4.33044	6.54602	-19.63806	3.02124
0.274	-7.35168	6.04248	2.5177	-23.96851	-0.70496
0.2745	-4.73328	4.53186	4.53186	-24.47205	-2.41699
0.275	-2.5177	0.40283	1.91345	-21.24939	1.81274
0.2755	-3.22266	2.11487	-1.51062	-26.08337	0.60425
0.276	-3.12195	5.63965	3.32336	-23.26355	6.74744
0.2765	-4.12903	2.92053	8.35876	-16.41541	2.11487
0.277	-3.32336	6.44531	12.78992	-15.81116	1.51062
0.2775	6.84814	2.41699	8.56018	-16.91895	5.63965
0.278	12.18567	12.18567	8.15735	-18.73169	-0.60425
0.2785	8.96301	0.40283	9.16443	-22.6593	3.02124
0.279	10.77576	-2.11487	4.93469	-23.06213	2.31628
0.2795	15.20691	-4.93469	7.5531	-16.81824	1.40991
0.28	12.89062	-4.22974	-0.10071	-18.22815	3.22266
0.2805	9.56726	-11.2793	0.90637	-17.92603	5.33752
0.281	9.36584	-3.7262	2.92053	-11.88354	3.22266
0.2815	1.51062	-9.86938	-4.93469	-8.8623	-1.51062
0.282	2.71912	-7.35168	-17.01965	-1.2085	-16.41541
0.2825	4.22974	-8.96301	-19.53735	8.15735	-16.01257
0.283	10.57434	-14.30054	-22.15576	31.32019	-19.13452
0.2835	6.04248	-14.60266	-7.04956	29.60815	-8.56018
0.284	-0.30212	-9.97009	-4.73328	27.99683	-2.21558
0.2845	-3.42407	-12.18567	-17.01965	23.8678	-1.91345
0.285	-1.40991	-16.11328	-18.8324	29.70886	-1.40991
0.2855	0.20142	-16.51611	-22.15576	25.57983	10.47363
0.286	-6.54602	-17.82532	-17.6239	23.46497	21.24939
0.2865	-6.14319	-10.47363	-11.98425	17.6239	18.42957
0.287	0.70496	-11.58142	-15.60974	14.70337	16.3147
0.2875	-0.70496	-15.1062	-11.58142	13.89771	11.98425
0.288	-1.91345	-13.99841	-8.35876	11.78284	9.16443
0.2885	-0.70496	-7.35168	-6.94885	9.86938	-1.00708
0.289	-2.11487	-10.57434	-10.17151	2.01416	-3.8269
0.2895	-0.10071	0.60425	-0.90637	2.01416	5.33752
0.29	2.11487	-7.04956	1.10779	-4.53186	0.50354
0.2905	1.51062	-5.94177	-1.2085	-10.57434	6.44531
0.291	-3.32336	-1.61133	-8.7616	-21.85364	0.50354
0.2915	-3.7262	2.11487	-5.94177	-20.54443	5.53894
0.292	-1.51062	-6.2439	-9.46655	-25.57983	9.06372
0.2925	-2.92053	-3.92761	2.11487	-23.26355	6.94885
0.293	-0.40283	0	3.7262	-19.94019	3.32336
0.2935	-1.10779	-2.11487	3.7262	-12.38708	-1.91345
0.294	-3.92761	0.50354	3.8269	-7.35168	-3.7262
0.2945	0.30212	-0.30212	14.60266	-7.25098	-8.7616
0.295	-1.40991	8.66089	15.91187	-3.92761	-14.70337
0.2955	-2.41699	15.1062	18.53027	-8.66089	-8.56018
0.296	-2.5177	9.36584	16.81824	-3.12195	-16.11328
0.2965	3.62549	16.41541	8.25806	2.11487	-13.09204
0.297	-3.32336	13.797	6.94885	-2.41699	-18.53027
0.2975	3.7262	14.40125	5.43823	1.10779	-13.19275
0.298	4.93469	18.42957	6.44531	-4.83398	-13.797
0.2985	2.41699	11.58142	3.32336	-3.52478	-5.94177
0.299	0.70496	19.03381	-0.10071	4.43115	-15.00549
0.2995	1.71204	13.69629	8.25806	2.5177	-10.97717
0.3	-4.83398	17.82532	1.91345	1.91345	-5.74036
0.3005	-2.92053	10.97717	5.53894	-0.50354	-6.64673
0.301	-1.3092	7.75452	-1.81274	8.7616	-10.57434
0.3015	-8.66089	2.01416	-2.71912	9.97009	-2.21558
0.302	-3.92761	-1.61133	-3.92761	10.57434	6.04248
0.3025	-3.02124	-10.17151	-5.13611	19.03381	11.2793
0.303	-8.45947	-12.68921	-9.26514	13.59558	11.88354
0.3035	-12.08496	-9.86938	-9.26514	17.22107	16.91895
0.304	-11.17859	-20.64514	-6.64673	13.59558	22.05505
0.3045	-7.75452	-17.42249	-7.45239	18.42957	20.24231
0.305	-8.25806	-20.24231	-5.33752	20.24231	13.49487
0.3055	-8.66089	-20.74585	-7.5531	14.30054	12.68921
0.306	-5.13611	-17.6239	-7.75452	15.40833	1.3092
0.3065	-10.37292	-18.42957	-7.95593	12.5885	6.84814
0.307	-6.74744	-13.797	-18.42957	16.61682	10.17151
0.3075	-10.77576	-17.42249	-12.18567	3.62549	13.29346
0.308	-5.94177	-13.49487	-16.81824	4.63257	15.1062
0.3085	-5.53894	-10.97717	-12.38708	1.81274	18.22815
0.309	-9.16443	-7.65381	-11.17859	2.21558	13.09204
0.3095	-3.12195	-7.15027	-0.80566	-6.14319	-2.5177
0.31	-4.33044	-7.85522	0.50354	-19.63806	5.23682
0.3105	-3.52478	3.62549	7.45239	-22.25647	-0.90637
0.311	-5.13611	5.0354	10.97717	-32.12585	-9.16443
0.3115	1.00708	6.54602	7.15027	-44.61365	-11.2793
0.312	-3.7262	-5.23682	11.17859	-28.70178	4.73328
0.3125	-1.51062	-5.33752	5.63965	-5.94177	12.99133
0.313	0.80566	-1.71204	-7.95593	-1.91345	10.17151
0.3135	8.8623	2.81982	-10.87646	8.35876	6.14319
0.314	-2.5177	-2.5177	0.10071	7.25098	-5.33752
0.3145	3.32336	-6.3446	-4.12903	3.12195	-14.50195
0.315	7.5531	-3.02124	3.7262	4.12903	-18.02673
0.3155	3.32336	-10.57434	7.45239	0.70496	-17.22107
0.316	2.71912	-12.38708	11.78284	-0.10071	-12.68921
0.3165	1.10779	5.53894	6.84814	-3.32336	-10.57434
0.317	0.40283	12.5885	2.5177	-15.30762	-16.01257
0.3175	-3.42407	13.99841	11.78284	-13.19275	-14.80408
0.318	-6.3446	9.26514	4.53186	-9.46655	-9.36584
0.3185	-7.35168	0.50354	15.81116	-5.33752	-9.26514
0.319	-11.68213	-4.43115	23.66638	-7.95593	-4.93469
0.3195	-1.3092	-2.5177	14.90479	-3.12195	-19.03381
0.32	-1.3092	-1.2085	6.84814	-3.62549	-14.60266
0.3205	0.80566	-3.02124	6.54602	4.12903	-8.96301
0.321	-1.91345	-3.52478	-3.22266	9.16443	-1.71204
0.3215	1.51062	-8.05664	-1.51062	17.01965	13.59558
0.322	3.22266	-9.36584	-8.7616	10.97717	20.54443
0.3225	-5.94177	-2.41699	-8.66089	13.09204	14.80408
0.323	-6.14319	-16.41541	-17.01965	20.04089	19.43665
0.3235	4.22974	-12.38708	-25.07629	19.63806	18.8324
0.324	10.67505	-12.89062	-32.12585	10.37292	6.64673
0.3245	8.7616	-19.33594	-34.34143	20.24231	8.56018
0.325	2.5177	-18.73169	-19.13452	25.07629	-2.71912
0.3255	-8.8623	-8.96301	-0.10071	27.29187	0.70496
0.326	-11.78284	-2.31628	-3.12195	18.8324	9.26514
0.3265	-15.81116	-3.52478	-8.35876	-2.5177	20.74585
0.327	-16.11328	-6.94885	-21.85364	-6.84814	18.73169
0.3275	-13.59558	-1.51062	-29.30603	-0.10071	1.91345
0.328	-4.83398	-0.70496	-25.27771	6.14319	-10.17151
0.3285	-2.31628	5.63965	-15.60974	9.66797	-19.83948
0.329	-4.43115	9.06372	6.74744	8.45947	-10.27222
0.3295	-8.56018	13.99841	9.86938	5.33752	1.00708
0.33	-13.29346	6.94885	-1.91345	-0.20142	-0.80566
0.3305	-10.37292	-4.33044	-3.02124	2.92053	4.83398
0.331	-10.27222	-15.20691	-6.3446	-6.94885	7.15027
0.3315	-12.99133	-17.52319	10.97717	-11.78284	13.69629
0.332	-5.94177	-4.33044	8.05664	-10.57434	6.14319
0.3325	-9.26514	-5.53894	2.81982	-10.87646	5.23682
0.333	-5.43823	-1.10779	13.09204	-19.23523	0.90637
0.3335	6.94885	8.96301	3.22266	-20.24231	0.80566
0.334	0.40283	15.20691	-1.51062	-16.61682	-4.53186
0.3345	-7.15027	8.45947	-1.3092	-12.99133	-3.32336
0.335	-17.52319	-1.81274	13.99841	-18.53027	-9.46655
0.3355	-12.5885	-5.13611	12.68921	-18.32886	-16.61682
0.336	-10.37292	1.61133	5.33752	-15.40833	-5.94177
0.3365	-3.8269	-0.90637	9.56726	-19.13452	-11.48071
0.337	-3.8269	-0.40283	14.70337	-13.19275	-12.5885
0.3375	-0.10071	-0.50354	15.00549	-20.24231	-16.71753
0.338	0.60425	4.83398	13.797	-13.19275	-17.32178
0.3385	4.33044	-0.20142	9.36584	-10.27222	-19.23523
0.339	7.65381	-4.83398	5.0354	-12.48779	-16.3147
0.3395	8.05664	-7.35168	4.22974	-8.66089	-13.797
0.34	10.37292	-8.05664	1.51062	-2.5177	-10.87646
0.3405	4.93469	-1.3092	-2.92053	5.53894	-10.67505
0.341	5.0354	-4.43115	-2.41699	0.90637	-3.7262
0.3415	6.54602	-4.43115	-5.23682	9.66797	-6.14319
0.342	1.3092	-0.90637	-5.74036	15.1062	3.7262
0.3425	6.54602	-5.13611	-7.75452	16.21399	2.5177
0.343	6.64673	-8.35876	-12.89062	21.45081	1.00708
0.3435	7.45239	-9.76868	-17.42249	20.04089	7.45239
0.344	8.7616	-10.37292	-22.15576	14.60266	11.68213
0.3445	5.33752	-11.68213	-20.84656	10.87646	18.12744
0.345	9.86938	-15.40833	-22.6593	12.08496	19.63806
0.3455	5.13611	-11.98425	-18.12744	2.31628	14.60266
0.346	2.31628	-13.09204	-17.32178	1.3092	18.63098
0.3465	5.13611	-18.02673	-13.797	1.40991	15.40833
0.347	1.91345	-20.04089	-18.22815	-1.51062	15.50903
0.3475	-0.10071	-16.01257	-13.99841	-0.10071	18.42957
0.348	-7.04956	-10.47363	-19.23523	-4.33044	25.07629
0.3485	-11.68213	-7.85522	-17.52319	-11.58142	26.08337
0.349	-5.23682	-13.797	-15.71045	-7.35168	25.07629
0.3495	-8.35876	-7.85522	-17.6239	-3.92761	9.76868
0.35	-8.45947	-14.40125	-14.60266	2.01416	10.0708
0.3505	-12.38708	-18.8324	1.3092	1.10779	1.40991
0.351	-14.40125	-15.40833	3.52478	-2.21558	-0.90637
0.3515	-14.30054	-13.69629	-4.33044	-1.10779	0.30212
0.352	-25.88196	-7.35168	-15.40833	-1.2085	-0.10071
0.3525	-19.43665	-7.04956	-23.96851	-3.62549	-9.26514
0.353	-14.70337	7.95593	-25.27771	-2.81982	-27.89612
0.3535	-21.65222	19.73877	-6.94885	-8.25806	-49.85046
0.354	-17.42249	19.13452	12.48779	-13.29346	-44.71436
0.3545	-8.56018	25.177	24.27063	-23.96851	-36.25488
0.355	-6.2439	18.22815	36.25488	-23.46497	-28.80249
0.3555	3.52478	10.67505	45.41931	-19.03381	-30.81665
0.356	-0.10071	15.00549	29.50745	-13.89771	-18.32886
0.3565	3.92761	12.5885	17.22107	-4.93469	-16.01257
0.357	2.92053	5.53894	9.46655	-11.68213	-19.03381
0.3575	-0.80566	7.25098	1.00708	-6.74744	-15.20691
0.358	1.3092	2.31628	3.8269	-7.95593	-5.13611
0.3585	-0.80566	-4.02832	2.01416	-10.57434	-9.76868
0.359	-1.3092	-4.12903	-0.30212	-9.36584	-2.31628
0.3595	-7.75452	-2.01416	-3.7262	-1.40991	-0.30212
0.36	-11.88354	-9.97009	-2.31628	-0.10071	0.70496
0.3605	-10.37292	-8.96301	3.12195	-2.41699	0.90637
0.361	-13.89771	-9.16443	7.15027	0.40283	-0.10071
0.3615	-19.23523	-8.35876	7.75452	3.7262	3.7262
0.362	-15.40833	-9.56726	-4.53186	5.63965	0.70496
0.3625	-10.77576	-7.5531	-5.63965	9.26514	-2.71912
0.363	-9.56726	-15.60974	-5.13611	11.07788	-0.90637
0.3635	-2.01416	-17.92603	-3.02124	10.77576	-2.92053
0.364	-1.3092	-11.17859	-1.10779	12.99133	-5.74036
0.3645	-7.65381	-13.49487	-4.83398	13.99841	-7.04956
0.365	-4.63257	-12.89062	-3.02124	11.38	-0.90637
0.3655	-0.30212	-13.99841	2.61841	16.11328	-0.80566
0.366	-1.10779	-13.99841	-1.00708	13.797	1.40991
0.3665	-1.2085	-19.94019	-8.15735	12.5885	1.71204
0.367	-9.86938	-17.6239	-8.96301	8.7616	-2.11487
0.3675	-9.16443	-4.73328	-11.78284	6.54602	-1.51062
0.368	-7.75452	-10.17151	-14.30054	9.66797	-1.3092
0.3685	-3.52478	-8.05664	-5.53894	16.81824	-0.20142
0.369	-1.81274	-8.56018	-13.39417	5.74036	-5.74036
0.3695	5.33752	-6.3446	-9.46655	1.81274	-5.43823
0.37	0.50354	5.33752	-7.45239	2.41699	-4.12903
0.3705	-7.25098	-0.80566	-8.66089	5.13611	-4.33044
0.371	-3.7262	2.92053	-2.01416	3.8269	-4.33044
0.3715	-4.83398	-1.81274	-4.33044	-4.43115	-4.63257
0.372	-1.2085	2.92053	-0.40283	-4.12903	-1.3092
0.3725	4.83398	1.3092	-3.8269	-8.8623	-4.33044
0.373	0.40283	10.47363	4.93469	-11.58142	-3.92761
0.3735	-1.2085	7.35168	12.78992	-14.90479	-2.11487
0.374	-2.01416	8.7616	7.85522	-18.8324	-7.75452
0.3745	-4.33044	13.39417	7.15027	-13.797	-7.5531
0.375	-2.92053	12.48779	13.09204	-9.46655	-7.85522
0.3755	-2.71912	15.40833	9.66797	-13.69629	-10.17151
0.376	-4.63257	12.5885	5.33752	-21.65222	-8.7616
0.3765	-3.8269	7.15027	4.83398	-21.95435	-4.83398
0.377	-1.91345	15.71045	12.18567	-21.24939	-7.35168
0.3775	-3.22266	10.87646	7.85522	-17.82532	-6.04248
0.378	-4.22974	9.36584	12.08496	-12.08496	-3.7262
0.3785	-0.60425	9.06372	6.44531	-8.66089	-9.36584
0.379	-1.51062	8.25806	3.8269	-6.04248	-6.14319
0.3795	-3.32336	4.12903	5.0354	-16.51611	-7.85522
0.38	-3.92761	3.02124	4.33044	-31.52161	-2.92053
0.3805	-3.32336	13.89771	1.3092	-39.88037	-3.02124
0.381	-8.56018	6.94885	2.5177	-44.41223	-8.96301
0.3815	-3.22266	0.40283	-0.50354	-34.94568	-2.81982
0.382	1.71204	2.41699	-9.97009	-21.24939	1.51062
0.3825	6.2439	-1.81274	-5.63965	-14.30054	9.76868
0.383	5.43823	-0.50354	-10.87646	-4.93469	8.05664
0.3835	-1.81274	-5.63965	-19.13452	-6.14319	3.8269
0.384	3.32336	-6.94885	-18.63098	6.44531	-7.35168
0.3845	-1.10779	-7.15027	-20.74585	27.79541	-0.10071
0.385	7.75452	-13.797	-22.86072	44.61365	13.49487
0.3855	3.22266	-13.59558	-27.59399	53.87878	13.19275
0.386	0.60425	-13.59558	-19.03381	45.82214	15.60974
0.3865	1.91345	-14.60266	-17.32178	31.82373	14.80408
0.387	-0.70496	-14.80408	-10.37292	30.81665	12.08496
0.3875	-7.15027	-18.73169	-2.92053	27.79541	-0.50354
0.388	0.60425	-13.19275	-3.92761	21.95435	-2.21558
0.3885	-3.52478	-2.11487	-5.23682	24.27063	-9.06372
0.389	-3.22266	-7.95593	-6.64673	21.65222	-9.97009
0.3895	-1.81274	-2.71912	-5.33752	9.97009	-13.797
0.39	-3.92761	-0.10071	-9.16443	5.33752	-10.57434
0.3905	1.00708	-0.60425	-3.7262	6.94885	-13.89771
0.391	-0.10071	5.53894	4.12903	1.81274	-12.38708
0.3915	4.22974	2.41699	4.83398	-3.92761	-5.53894
0.392	-5.74036	1.71204	8.05664	-3.62549	1.2085
0.3925	-6.04248	2.31628	7.85522	-7.95593	5.74036
0.393	-3.02124	5.33752	11.2793	-12.38708	-3.8269
0.3935	-3.32336	12.99133	8.05664	-11.68213	-8.15735
0.394	-5.0354	11.48071	12.89062	-15.00549	-4.93469
0.3945	1.3092	19.73877	20.04089	-19.73877	-3.92761
0.395	-9.36584	11.48071	15.50903	-18.63098	-3.7262
0.3955	-10.57434	13.797	13.797	-21.24939	-4.33044
0.396	-3.92761	14.80408	10.97717	-11.17859	2.31628
0.3965	-5.94177	13.69629	8.05664	-7.85522	-0.30212
0.397	-0.10071	13.19275	0.60425	-14.50195	-5.63965
0.3975	-10.57434	12.5885	8.15735	-9.16443	-2.71912
0.398	-4.12903	7.85522	4.12903	-14.19983	-1.61133
0.3985	-7.35168	6.44531	10.0708	-7.25098	3.32336
0.399	-4.93469	3.92761	7.75452	-7.45239	8.7616
0.3995	-10.97717	-0.10071	1.51062	-6.44531	8.56018
0.4	-11.2793	0.40283	5.53894	1.3092	10.97717
0.4005	-8.56018	-1.81274	5.23682	-1.10779	4.33044
0.401	-2.11487	-2.5177	-6.3446	0.50354	1.91345
0.4015	-4.93469	-9.56726	-5.74036	3.32336	8.56018
0.402	-1.51062	-20.54443	-2.11487	0.20142	11.68213
0.4025	-2.61841	-13.797	-2.11487	7.75452	6.94885
0.403	-0.30212	-17.6239	-9.66797	7.75452	8.96301
0.4035	-7.75452	-18.02673	-14.50195	6.74744	3.92761
0.404	-1.10779	-13.797	-20.34302	13.19275	4.12903
0.4045	-10.97717	-13.29346	-22.35718	12.28638	7.75452
0.405	-11.58142	-15.1062	-10.47363	14.40125	-2.92053
0.4055	-15.1062	-16.81824	-15.00549	12.38708	-5.13611
0.406	-6.04248	-14.80408	-15.40833	13.49487	1.51062
0.4065	-0.90637	-17.32178	-12.89062	11.38	-5.13611
0.407	-7.5531	-22.96143	-19.63806	6.74744	-5.94177
0.4075	-3.92761	-14.09912	-2.81982	15.1062	-1.91345
0.408	-3.8269	-4.93469	-0.10071	12.18567	-8.35876
0.4085	-5.0354	1.71204	-1.3092	4.93469	-8.66089
0.409	-3.8269	-1.40991	-2.21558	0.30212	-11.98425
0.4095	-8.05664	3.8269	-10.97717	7.65381	-7.95593
0.41	-7.35168	3.22266	-12.89062	5.43823	-9.86938
0.4105	-2.92053	6.44531	-5.43823	6.84814	-16.41541
0.411	-6.3446	1.51062	1.91345	-2.11487	-6.64673
0.4115	-7.5531	4.02832	0.90637	-3.8269	-10.17151
0.412	-7.95593	14.80408	6.54602	-10.97717	-22.86072
0.4125	-4.73328	10.57434	4.33044	-7.95593	-30.51453
0.413	2.31628	10.27222	7.35168	-12.38708	-36.65771
0.4135	2.11487	5.74036	6.04248	-6.44531	-23.66638
0.414	3.52478	1.61133	5.0354	-0.40283	-20.94727
0.4145	2.31628	8.96301	3.92761	-0.70496	-10.77576
0.415	8.66089	4.63257	7.15027	-1.3092	-7.45239
0.4155	2.11487	12.18567	6.94885	-4.53186	3.32336
0.416	1.2085	11.78284	6.74744	2.01416	16.81824
0.4165	3.8269	9.66797	8.45947	6.14319	16.51611
0.417	1.61133	3.8269	5.53894	7.15027	0.90637
0.4175	2.21558	3.42407	9.26514	10.37292	-12.38708
0.418	-3.52478	4.22974	9.06372	0.30212	-2.71912
0.4185	-3.02124	13.29346	7.25098	-19.03381	2.61841
0.419	-0.40283	8.45947	4.93469	-42.8009	8.56018
0.4195	-6.14319	7.15027	0.30212	-39.67896	5.84106
0.42	-7.35168	2.5177	4.12903	-26.58691	13.49487
0.4205	-4.12903	-7.65381	8.05664	-16.41541	8.8623
0.421	-6.2439	-8.8623	2.11487	-13.19275	6.04248
0.4215	-12.18567	-10.87646	6.54602	-8.66089	12.38708
0.422	-15.20691	-17.01965	-3.52478	-0.10071	8.7616
0.4225	-10.27222	-11.88354	-2.31628	4.53186	11.48071
0.423	-12.5885	-22.86072	-8.96301	9.46655	13.59558
0.4235	-10.97717	-17.22107	-7.5531	12.38708	5.13611
0.424	-10.37292	-13.89771	-15.1062	9.36584	5.23682
0.4245	-3.12195	-20.24231	-15.60974	16.61682	10.37292
0.425	-6.44531	-16.81824	-18.02673	10.57434	3.22266
0.4255	-5.0354	-13.59558	-17.01965	9.66797	0
0.426	-10.77576	-11.07788	-0.90637	10.97717	2.5177
0.4265	-7.5531	-11.58142	-1.40991	13.39417	6.54602
0.427	-7.35168	-7.75452	-7.65381	14.19983	4.33044
0.4275	-2.41699	-8.25806	-8.05664	15.20691	2.41699
0.428	2.61841	-5.33752	-11.48071	10.37292	-3.8269
0.4285	0.30212	-10.57434	-4.12903	8.05664	-7.25098
0.429	2.61841	-0.60425	-5.33752	11.68213	-8.56018
0.4295	1.00708	1.71204	-2.21558	0.50354	-17.01965
0.43	-0.10071	5.94177	-4.73328	2.31628	-12.68921
0.4305	-4.83398	12.48779	4.02832	-3.7262	-14.40125
0.431	-9.16443	16.11328	-7.95593	-6.54602	-12.68921
0.4315	-8.35876	19.43665	-7.75452	-5.13611	-12.99133
0.432	-6.3446	12.5885	-1.10779	-3.52478	-11.17859
0.4325	2.81982	12.89062	4.73328	-5.33752	-10.97717
0.433	-4.53186	10.57434	3.22266	-9.86938	-4.12903
0.4335	-8.96301	16.21399	8.05664	-8.66089	-1.71204
0.434	-7.65381	9.36584	8.7616	-10.27222	-3.42407
0.4345	-8.05664	13.59558	14.80408	-14.70337	-7.15027
0.435	-8.25806	10.77576	8.45947	-18.8324	-2.11487
0.4355	-12.5885	16.61682	14.30054	-11.98425	-1.51062
0.436	-13.09204	13.99841	17.12036	-7.85522	-8.56018
0.4365	-7.65381	12.38708	19.83948	-15.00549	-8.35876
0.437	-12.28638	14.40125	16.11328	-11.88354	-0.60425
0.4375	-11.17859	15.40833	5.33752	-9.66797	-0.10071
0.438	-14.09912	8.8623	2.41699	-10.77576	1.3092
0.4385	-11.38	4.33044	-5.84106	-10.57434	-0.70496
0.439	-9.26514	4.93469	-7.35168	-6.44531	-3.7262
0.4395	-4.93469	-0.30212	-13.39417	-4.12903	2.11487
0.44	-6.74744	-5.53894	-2.31628	-1.10779	10.17151
0.4405	-15.30762	-15.50903	-0.10071	-1.91345	11.78284
0.441	-18.22815	-10.57434	-0.40283	-0.30212	11.88354
0.4415	-22.35718	-16.71753	1.81274	6.04248	15.00549
0.442	-21.04797	-15.20691	-9.26514	7.95593	15.1062
0.4425	-15.81116	-20.74585	-14.90479	3.62549	9.46655
0.443	-11.58142	-26.88904	-26.18408	9.66797	12.18567
0.4435	-10.0708	-31.11877	-29.91028	9.36584	14.30054
0.444	-7.35168	-26.3855	-21.95435	9.06372	15.30762
0.4445	-1.51062	-29.00391	-18.12744	9.36584	12.99133
0.445	-2.11487	-26.68762	3.12195	6.74744	22.96143
0.4455	5.33752	-23.96851	5.84106	4.63257	26.28479
0.446	2.11487	-25.27771	10.57434	9.26514	16.91895
0.4465	-2.41699	-18.02673	0.30212	8.25806	16.61682
0.447	-5.63965	-19.63806	-13.89771	0.40283	13.99841
0.4475	-2.5177	-16.3147	-12.5885	-1.10779	10.37292
0.448	5.13611	-18.02673	-9.16443	-2.21558	8.7616
0.4485	10.47363	-18.32886	-4.12903	-0.90637	1.40991
0.449	8.66089	-13.797	-0.30212	1.81274	-0.50354
0.4495	6.64673	-5.94177	-1.10779	14.60266	-1.81274
0.45	7.15027	-5.33752	1.71204	14.60266	-18.93311
0.4505	10.67505	1.51062	4.53186	13.49487	-33.13293
0.451	6.54602	4.63257	6.94885	14.90479	-28.60107
0.4515	-1.3092	4.93469	-0.10071	7.35168	-24.87488
0.452	-3.8269	1.91345	-1.2085	-0.50354	-23.06213
0.4525	-2.92053	2.41699	6.74744	-1.10779	-18.8324
0.453	8.15735	-3.42407	15.81116	-9.97009	-18.42957
0.4535	4.53186	5.84106	7.5531	-13.797	-18.02673
0.454	13.59558	7.5531	3.52478	-15.40833	-16.11328
0.4545	7.15027	17.6239	0.70496	-16.51611	-12.48779
0.455	4.93469	10.77576	9.76868	-15.71045	-5.94177
0.4555	9.97009	11.38	15.20691	-11.58142	-5.13611
0.456	4.93469	5.0354	12.08496	-10.97717	-6.3446
0.4565	5.84106	8.66089	7.35168	-12.5885	-5.94177
0.457	4.22974	7.35168	9.66797	-17.12036	-1.40991
0.4575	-0.90637	11.78284	9.97009	-13.89771	-1.3092
0.458	-9.16443	9.97009	7.15027	-12.08496	-2.5177
0.4585	-1.3092	13.99841	3.32336	-9.97009	-3.02124
0.459	-4.33044	8.96301	2.11487	-13.797	-5.0354
0.4595	-5.74036	-2.11487	3.42407	-3.12195	0.60425
0.46	1.61133	-5.23682	-10.27222	-2.11487	-4.83398
0.4605	1.91345	-8.8623	-15.71045	-0.10071	-2.5177
0.461	6.94885	-14.60266	-13.99841	4.73328	-0.90637
0.4615	0.10071	-10.77576	-6.74744	0	-2.31628
0.462	-4.33044	-7.35168	-6.14319	2.41699	-0.30212
0.4625	-12.08496	-1.91345	3.22266	15.40833	2.11487
0.463	-20.44373	0.20142	-4.93469	13.39417	-3.8269
0.4635	-10.47363	-0.10071	-5.33752	9.66797	1.2085
0.464	-12.48779	-7.35168	-11.78284	21.3501	2.92053
0.4645	-8.35876	-9.16443	-12.99133	14.80408	4.12903
0.465	-8.35876	-7.35168	-16.61682	13.49487	5.53894
0.4655	-11.07788	-6.14319	-15.81116	12.68921	2.5177
0.466	-13.797	-6.84814	-19.63806	14.30054	0.40283
0.4665	-17.42249	-21.14868	-18.12744	16.41541	3.7262
0.467	-18.53027	-16.3147	-0.90637	15.00549	3.8269
0.4675	-5.33752	-11.17859	2.92053	13.89771	9.56726
0.468	-3.52478	-6.74744	-3.8269	21.3501	7.45239
0.4685	-2.41699	-6.14319	-7.15027	17.42249	-1.10779
0.469	-2.81982	-4.63257	-8.25806	11.78284	-3.52478
0.4695	-4.53186	-3.22266	-6.74744	6.14319	-4.43115
0.47	0.50354	-4.02832	-8.8623	-1.40991	-5.74036
0.4705	2.92053	1.61133	-5.33752	-1.2085	2.31628
0.471	10.17151	-1.91345	0.20142	-1.40991	-2.5177
0.4715	4.93469	1.51062	-3.32336	-7.95593	-3.32336
0.472	-0.40283	6.14319	5.53894	-8.8623	-5.63965
0.4725	1.3092	8.05664	5.0354	-11.48071	-9.86938
0.473	2.01416	11.78284	6.94885	-12.68921	-15.20691
0.4735	4.22974	10.87646	9.16443	-22.05505	-12.5885
0.474	5.84106	10.57434	5.94177	-18.32886	-13.39417
0.4745	8.15735	11.68213	1.3092	-18.53027	-15.91187
0.475	8.25806	8.96301	7.75452	-16.41541	-15.20691
0.4755	3.62549	6.84814	12.28638	-15.1062	-15.00549
0.476	5.33752	3.42407	13.89771	-9.26514	-11.58142
0.4765	4.33044	9.16443	10.77576	-13.89771	-4.12903
0.477	10.57434	4.93469	6.14319	-7.35168	-1.91345
0.4775	9.86938	10.77576	11.07788	-11.07788	2.41699
0.478	9.06372	1.40991	3.52478	-15.1062	5.53894
0.4785	3.7262	1.00708	5.74036	-1.10779	17.6239
0.479	2.92053	-1.3092	-1.10779	-8.56018	26.88904
0.4795	4.93469	-4.33044	-3.8269	-10.17151	30.91736
0.48	-0.10071	-0.80566	-1.91345	-15.40833	28.29895
0.4805	0.30212	-6.84814	3.7262	-16.11328	24.27063
0.481	-1.71204	-8.25806	-1.51062	-9.16443	31.72302
0.4815	-1.51062	-2.71912	-7.5531	-1.40991	21.85364
0.482	-5.0354	-2.71912	-3.52478	-8.96301	16.61682
0.4825	-9.16443	-3.12195	-5.33752	-6.3446	13.19275
0.483	-12.78992	0.20142	-8.35876	1.10779	17.6239
0.4835	-20.24231	1.2085	-7.65381	-0.90637	14.60266
0.484	-17.72461	5.23682	-6.64673	4.12903	7.45239
0.4845	-13.89771	-1.40991	-6.74744	16.01257	5.74036
0.485	-11.17859	-2.11487	-4.83398	14.70337	-4.22974
0.4855	-21.85364	-4.73328	-8.15735	22.76001	-12.48779
0.486	-21.65222	-12.38708	-12.89062	18.93311	-11.17859
0.4865	-14.90479	-10.77576	-10.77576	8.56018	-16.3147
0.487	-22.35718	-6.84814	-11.68213	7.5531	-16.3147
0.4875	-16.81824	-5.13611	-9.56726	1.61133	-12.28638
0.488	-17.6239	-21.3501	-12.99133	-0.30212	-5.53894
0.4885	-10.67505	-18.02673	0.30212	-0.40283	-7.25098
0.489	-8.15735	-19.23523	-4.53186	5.13611	-6.2439
0.4895	-0.50354	-11.38	-4.43115	14.19983	-5.94177
0.49	3.52478	-15.00549	-3.52478	4.83398	-8.45947
0.4905	-4.12903	-10.27222	-7.15027	2.41699	-2.81982
0.491	-0.60425	-6.64673	0.80566	5.23682	-8.35876
0.4915	11.17859	-4.63257	-0.40283	10.17151	-13.89771
0.492	15.81116	-5.0354	2.5177	3.52478	-14.80408
0.4925	27.59399	-0.50354	5.74036	2.31628	-15.71045
0.493	16.61682	-1.40991	4.22974	0.70496	-11.17859
0.4935	15.50903	-0.50354	6.84814	-4.12903	-4.02832
0.494	3.8269	-8.35876	9.86938	-14.09912	-4.22974
0.4945	0.90637	-9.56726	7.5531	-21.65222	8.25806
0.495	4.12903	0.50354	7.04956	-22.86072	18.73169
0.4955	2.5177	-0.10071	10.57434	-18.8324	20.24231
0.496	4.12903	-0.10071	10.37292	-23.66638	19.33594
0.4965	2.5177	8.15735	16.61682	-23.16284	20.24231
0.497	2.21558	17.52319	20.24231	-24.67346	12.5885
0.4975	8.15735	12.99133	12.48779	-30.11169	2.71912
0.498	0.30212	13.797	16.81824	-27.29187	-2.71912
0.4985	1.91345	10.37292	1.61133	-22.45789	2.71912
0.499	-3.52478	3.7262	2.21558	-20.04089	-15.60974
0.4995	-4.53186	-0.10071	4.83398	-10.57434	-45.92285
0.5	-11.17859	-4.93469	8.35876	-1.51062	-58.61206
0.5005	-5.94177	-1.81274	7.75452	-11.58142	-65.96375
0.501	-6.44531	0.30212	6.14319	-12.08496	-51.15967
0.5015	-8.8623	0.90637	-0.80566	-7.45239	-41.18958
0.502	-7.35168	-3.7262	-10.57434	10.57434	-23.8678
0.5025	-11.88354	-0.40283	-10.0708	24.47205	-7.15027
0.503	-11.38	0.30212	-13.99841	27.89612	1.71204
0.5035	-12.38708	-3.92761	-12.99133	31.72302	15.60974
0.504	-9.86938	-8.96301	-7.75452	21.85364	18.42957
0.5045	-13.59558	-11.98425	-15.20691	27.89612	8.25806
0.505	-9.46655	-17.01965	-11.17859	23.06213	7.95593
0.5055	-7.95593	-12.38708	-9.36584	23.56567	3.92761
0.506	-3.42407	-14.30054	-6.44531	24.97559	1.61133
0.5065	-4.33044	-18.12744	-6.14319	18.22815	4.63257
0.507	-6.04248	-18.63098	-7.95593	16.41541	6.84814
0.5075	-4.12903	-16.01257	-4.83398	19.94019	3.92761
0.508	-1.10779	-19.43665	-10.27222	11.58142	-3.22266
0.5085	-2.81982	-16.01257	-9.56726	20.64514	1.91345
0.509	-0.90637	-18.53027	-2.01416	12.99133	5.84106
0.5095	0.80566	-11.88354	-0.50354	8.66089	3.8269
0.51	3.62549	-11.17859	-4.12903	7.95593	4.53186
0.5105	-2.31628	-3.22266	-2.71912	2.92053	-0.60425
0.511	-1.10779	-0.10071	-0.30212	0.30212	2.81982
0.5115	2.71912	-5.94177	-0.80566	-0.40283	-0.10071
0.512	4.33044	-0.20142	5.43823	-1.91345	-4.22974
0.5125	2.5177	-4.43115	5.63965	-5.74036	-10.97717
0.513	-2.41699	1.61133	9.97009	-6.74744	-0.80566
0.5135	0.90637	2.61841	15.00549	-11.2793	-1.51062
0.514	-1.71204	1.00708	17.01965	-6.04248	-5.53894
0.5145	6.64673	9.66797	17.42249	-12.08496	-6.3446
0.515	-2.31628	12.28638	7.35168	-10.17151	-2.81982
0.5155	-7.35168	16.91895	4.12903	-11.98425	-4.83398
0.516	-0.90637	10.97717	7.45239	-8.8623	6.3446
0.5165	4.53186	6.54602	3.8269	-13.39417	4.93469
0.517	-3.92761	1.51062	5.74036	-11.07788	10.57434
0.5175	-3.02124	3.7262	14.70337	-14.30054	4.12903
0.518	-8.35876	3.8269	9.76868	-13.29346	2.81982
0.5185	-5.43823	3.22266	12.5885	-13.09204	6.14319
0.519	-12.5885	-0.20142	3.32336	-14.40125	8.7616
0.5195	-3.22266	5.74036	8.96301	-4.22974	3.32336
0.52	-6.2439	1.3092	8.25806	-5.0354	7.35168
0.5205	-7.04956	4.22974	0.70496	0.70496	5.63965
0.521	-8.35876	-3.52478	3.7262	-0.20142	-2.41699
0.5215	-8.56018	-2.5177	-0.90637	6.44531	-3.22266
0.522	-2.31628	-2.01416	1.3092	8.56018	4.43115
0.5225	-4.12903	-4.02832	-6.04248	4.22974	4.53186
0.523	-0.60425	-0.90637	-10.87646	8.05664	-0.10071
0.5235	-14.19983	-0.30212	-9.86938	12.99133	3.22266
0.524	-10.0708	-9.16443	-5.53894	11.78284	1.10779
0.5245	-8.7616	-16.01257	-2.21558	11.58142	-0.60425
0.525	-3.42407	-12.78992	-1.3092	14.50195	-7.5531
0.5255	-2.01416	-11.78284	-5.13611	16.11328	0.30212
0.526	-5.74036	-13.49487	-8.7616	11.68213	-3.52478
0.5265	-6.94885	-12.78992	-11.38	9.36584	-5.13611
0.527	-8.96301	-16.11328	-8.56018	18.42957	-4.33044
0.5275	-10.0708	-14.40125	-8.56018	8.7616	-11.88354
0.528	-10.87646	-11.98425	-7.15027	8.56018	-6.74744
0.5285	-5.23682	-10.87646	-1.51062	12.99133	-10.57434
0.529	-10.67505	-19.73877	-5.63965	3.92761	-5.23682
0.5295	-6.94885	-18.22815	-1.81274	7.15027	-8.96301
0.53	-10.27222	-1.91345	-6.14319	3.02124	-9.86938
0.5305	-3.8269	-3.7262	-0.10071	-3.52478	-7.15027
0.531	0.10071	-7.15027	2.11487	-4.02832	-4.02832
0.5315	-0.50354	9.86938	11.68213	-12.78992	-2.5177
0.532	2.92053	12.38708	7.5531	-9.56726	-2.71912
0.5325	-4.33044	10.47363	8.15735	-20.64514	-3.7262
0.533	-5.94177	5.0354	10.77576	-18.42957	0.50354
0.5335	-3.92761	8.96301	5.33752	-15.81116	-1.00708
0.534	-13.99841	13.59558	0.10071	-18.93311	1.40991
0.5345	-12.5885	22.25647	-3.32336	-14.19983	7.85522
0.535	-5.74036	22.86072	-2.11487	-15.91187	8.7616
0.5355	-6.3446	13.39417	5.53894	-14.80408	3.92761
0.536	-3.42407	22.76001	19.03381	-18.02673	3.42407
0.5365	-6.74744	15.81116	19.73877	-13.19275	3.8269
0.537	0.30212	17.52319	18.32886	-12.89062	7.35168
0.5375	-4.63257	12.18567	9.46655	-14.09912	1.51062
0.538	-2.31628	14.60266	7.65381	-9.36584	2.41699
0.5385	-4.12903	11.38	13.09204	-11.78284	0.90637
0.539	-6.04248	4.93469	9.66797	-9.46655	-0.40283
0.5395	-7.35168	5.0354	-0.90637	-7.95593	3.42407
0.54	-8.35876	-1.51062	1.81274	-5.63965	-0.50354
0.5405	-8.56018	1.81274	-4.53186	-2.41699	-0.20142
0.541	-15.60974	-2.5177	-1.51062	-6.54602	7.45239
0.5415	-15.00549	-7.35168	2.41699	0.20142	1.71204
0.542	-6.04248	-10.77576	-3.8269	5.74036	1.00708
0.5425	-10.0708	-18.12744	-9.26514	1.91345	1.10779
0.543	-10.67505	-13.99841	-12.99133	3.62549	3.22266
0.5435	-12.78992	-15.91187	-11.78284	7.35168	-0.10071
0.544	-11.88354	-13.89771	-11.17859	22.96143	-3.92761
0.5445	-8.7616	-16.41541	-12.68921	10.27222	3.22266
0.545	-10.77576	-20.64514	-13.99841	10.27222	-6.04248
0.5455	-14.40125	-18.02673	-17.82532	12.5885	-3.12195
0.546	-3.62549	-23.66638	-15.60974	11.48071	3.92761
0.5465	4.22974	-21.14868	-14.80408	10.67505	0.90637
0.547	-0.20142	-20.64514	-16.81824	14.60266	6.74744
0.5475	-5.33752	-23.26355	-19.03381	17.6239	5.94177
0.548	-6.74744	-25.78125	-12.08496	13.59558	5.53894
0.5485	-3.12195	-12.78992	-11.98425	8.7616	4.33044
0.549	-0.90637	-10.97717	-8.66089	2.31628	-3.7262
0.5495	-0.30212	-8.56018	-6.14319	1.40991	-3.8269
0.55	-0.90637	-9.26514	-3.32336	3.12195	-5.84106
0.5505	4.93469	-5.63965	-0.10071	0.50354	-4.63257
0.551	-2.11487	-5.0354	6.74744	-4.93469	-4.63257
0.5515	2.71912	-6.54602	8.8623	-3.12195	-2.01416
0.552	3.52478	-0.10071	-0.10071	-5.74036	0.80566
0.5525	4.83398	-2.31628	-2.92053	-7.95593	-1.91345
0.553	2.92053	1.91345	2.5177	-13.797	-7.45239
0.5535	4.12903	1.10779	2.31628	-12.78992	3.8269
0.554	7.5531	10.47363	7.75452	-16.61682	7.25098
0.5545	1.10779	5.43823	7.65381	-21.85364	11.88354
0.555	2.61841	-0.10071	8.25806	-21.85364	12.18567
0.5555	3.32336	5.74036	10.0708	-21.65222	14.60266
0.556	-5.94177	5.33752	13.797	-25.88196	10.77576
0.5565	-0.40283	8.96301	13.59558	-25.27771	15.30762
0.557	-1.81274	9.86938	6.54602	-25.98267	5.84106
0.5575	-1.3092	9.16443	7.65381	-29.91028	4.63257
0.558	-3.32336	7.15027	9.86938	-24.77417	-0.40283
0.5585	-0.70496	9.36584	9.76868	-21.24939	4.22974
0.559	-5.74036	8.8623	1.3092	-17.01965	3.92761
0.5595	1.10779	7.04956	-2.5177	-2.01416	2.01416
0.56	-0.90637	4.93469	-0.20142	12.89062	-10.17151
0.5605	1.10779	-2.31628	-2.11487	8.7616	-26.88904
0.561	-4.33044	-6.3446	3.32336	8.35876	-26.88904
0.5615	-4.33044	-4.53186	-0.10071	13.797	-25.07629
0.562	-6.64673	-8.35876	4.43115	12.78992	-17.72461
0.5625	-10.17151	-5.23682	2.01416	9.46655	-12.5885
0.563	-8.8623	-3.12195	-2.5177	17.92603	-10.77576
0.5635	-1.51062	-3.8269	-7.04956	16.61682	-0.90637
0.564	-5.43823	-4.93469	-8.25806	19.33594	-0.50354
0.5645	-4.22974	-9.36584	-1.91345	20.04089	-4.53186
0.565	-5.74036	-2.41699	-1.61133	19.33594	-8.25806
0.5655	-2.92053	-9.66797	-1.51062	20.04089	-5.13611
0.566	-7.85522	-10.67505	-5.94177	25.07629	-2.31628
0.5665	-9.56726	-15.91187	-5.53894	18.53027	-6.04248
0.567	-4.83398	-11.58142	-2.11487	15.81116	-4.83398
0.5675	-5.74036	-6.2439	-4.93469	17.82532	-8.35876
0.568	-4.12903	-7.85522	-6.54602	18.02673	-2.31628
0.5685	-6.2439	-8.25806	0.60425	7.85522	-5.23682
0.569	-4.02832	-11.78284	-11.07788	7.95593	-8.25806
0.5695	-5.74036	-7.85522	-8.35876	5.53894	-11.17859
0.57	-0.20142	-8.35876	-8.05664	4.12903	-12.89062
0.5705	3.7262	-5.53894	-6.04248	-4.33044	-3.12195
0.571	2.31628	-1.3092	-8.05664	-11.58142	3.52478
0.5715	0.20142	-4.53186	-5.13611	-14.50195	9.46655
0.572	4.83398	-0.10071	0.10071	-19.83948	4.93469
0.5725	-0.20142	3.32336	-2.61841	-29.40674	3.22266
0.573	4.33044	12.38708	-0.90637	-36.55701	2.01416
0.5735	2.41699	4.63257	4.02832	-40.48462	18.02673
0.574	9.76868	8.7616	-1.51062	-20.24231	21.65222
0.5745	3.02124	5.53894	-2.92053	-17.82532	26.78833
0.575	-7.75452	6.54602	5.13611	-11.98425	22.6593
0.5755	0.30212	12.18567	10.57434	-0.70496	22.35718
0.576	-3.62549	15.20691	6.94885	11.2793	21.45081
0.5765	-6.64673	16.61682	2.71912	22.25647	4.93469
0.577	-3.32336	16.91895	10.57434	27.89612	-9.16443
0.5775	-4.83398	16.21399	9.36584	24.47205	-27.19116
0.578	-8.56018	13.19275	16.11328	30.51453	-41.08887
0.5785	-3.92761	10.0708	17.42249	12.5885	-36.35559
0.579	-3.12195	8.7616	17.92603	-4.33044	-26.3855
0.5795	-4.22974	1.61133	13.39417	-26.88904	-10.47363
0.58	-1.2085	0.10071	7.15027	-39.47754	-2.31628
0.5805	2.92053	-3.52478	7.04956	-31.52161	-5.43823
0.581	1.91345	-0.10071	4.33044	-24.87488	-2.11487
0.5815	-2.71912	-2.31628	8.8623	-30.51453	-4.93469
0.582	-2.71912	0	1.00708	-15.00549	-6.3446
0.5825	2.5177	-4.12903	1.81274	-12.48779	-9.36584
0.583	6.44531	-2.71912	-7.35168	-7.65381	-7.25098
0.5835	2.21558	-5.74036	-6.3446	-0.10071	-12.18567
0.584	-2.81982	-2.01416	-15.00549	10.47363	-6.84814
0.5845	2.11487	-2.5177	-17.22107	16.11328	0.30212
0.585	-1.51062	-5.63965	-15.81116	18.22815	-8.45947
0.5855	-6.04248	-7.15027	-17.92603	16.11328	-4.63257
0.586	-3.62549	-10.77576	-21.45081	17.82532	-10.67505
0.5865	-13.39417	-15.30762	-17.42249	26.48621	-5.84106
0.587	-12.5885	-18.02673	-14.30054	26.68762	-12.5885
0.5875	-9.06372	-19.03381	-9.97009	25.78125	-4.33044
0.588	-15.20691	-7.75452	0.60425	10.17151	-4.02832
0.5885	-13.59558	-7.45239	-2.5177	6.44531	-12.89062
0.589	-2.5177	-3.7262	-3.12195	-3.12195	-13.49487
0.5895	-9.66797	-4.02832	0.10071	-5.84106	-10.67505
0.59	0.30212	-0.10071	-0.90637	-0.10071	-14.19983
0.5905	2.11487	3.92761	0.20142	11.38	2.01416
0.591	4.02832	0.20142	-4.22974	20.04089	2.31628
0.5915	5.33752	8.66089	-2.41699	7.5531	7.5531
0.592	6.94885	11.88354	-8.15735	-8.45947	0.50354
0.5925	6.14319	4.43115	0.30212	-15.50903	-14.30054
0.593	9.36584	10.57434	6.74744	-13.19275	-21.45081
0.5935	4.93469	9.86938	5.33752	-15.40833	-24.47205
0.594	6.54602	11.07788	14.50195	-14.60266	-23.26355
0.5945	7.04956	7.85522	8.7616	-14.80408	-20.64514
0.595	2.11487	14.50195	3.7262	-19.83948	-9.86938
0.5955	2.92053	14.19983	-2.11487	-16.81824	-5.43823
0.596	-7.85522	10.57434	7.75452	-15.91187	9.36584
0.5965	-7.35168	4.53186	13.59558	-16.61682	18.93311
0.597	-9.16443	10.87646	12.68921	-12.68921	26.28479
0.5975	-3.92761	10.97717	9.26514	-13.19275	24.57275
0.598	-12.78992	14.40125	3.42407	-14.70337	21.24939
0.5985	-6.64673	10.27222	6.54602	-14.50195	21.65222
0.599	-10.37292	7.85522	1.10779	-13.09204	27.49329
0.5995	-5.13611	6.94885	-1.10779	-12.38708	18.8324
0.6	-14.30054	2.5177	-3.7262	-5.84106	14.30054
0.6005	-14.90479	-1.10779	-2.01416	-2.92053	13.19275
0.601	-10.77576	-2.31628	6.74744	-4.73328	5.74036
0.6015	-7.25098	-3.52478	-3.22266	-5.0354	-0.70496
0.602	-10.37292	-4.12903	-8.7616	-0.10071	4.63257
0.6025	-13.99841	-8.15735	-11.98425	15.30762	4.33044
0.603	-17.22107	-11.17859	-12.78992	27.19116	5.94177
0.6035	-12.18567	-10.77576	-16.91895	27.6947	4.83398
0.604	-2.5177	-11.07788	-12.68921	16.21399	1.3092
0.6045	-9.56726	-15.00549	-8.96301	6.3446	7.15027
0.605	-4.12903	-16.41541	-5.43823	1.40991	3.42407
0.6055	-2.92053	-19.23523	-6.94885	5.13611	10.17151
0.606	0.30212	-23.76709	-14.60266	4.93469	23.06213
0.6065	-6.94885	-19.63806	-13.99841	7.45239	25.47913
0.607	-0.70496	-20.94727	-14.40125	6.84814	25.27771
0.6075	-9.86938	-21.85364	-14.40125	5.13611	27.09045
0.608	-5.63965	-18.22815	-7.35168	9.66797	25.37842
0.6085	-3.92761	-16.41541	-12.18567	14.40125	18.8324
0.609	-0.10071	-14.60266	-6.3446	11.58142	9.46655
0.6095	-1.51062	-8.96301	-6.2439	18.42957	1.3092
0.61	3.52478	-5.33752	-1.10779	18.42957	-21.04797
0.6105	7.75452	-2.41699	0.20142	22.25647	-29.20532
0.611	3.02124	-3.62549	3.32336	13.99841	-44.0094
0.6115	6.54602	0.30212	2.61841	3.7262	-41.99524
0.612	-0.10071	-4.93469	8.56018	-3.02124	-44.61365
0.6125	3.92761	-2.31628	9.86938	-9.16443	-37.7655
0.613	-1.61133	6.14319	6.2439	-12.38708	-30.51453
0.6135	3.32336	6.04248	6.44531	-15.60974	-21.55151
0.614	0.10071	8.56018	7.75452	-17.6239	-20.84656
0.6145	-1.71204	8.56018	13.19275	-13.797	-15.81116
0.615	7.5531	9.36584	13.69629	-15.00549	-9.86938
0.6155	10.87646	12.28638	14.90479	-22.96143	-8.05664
0.616	9.06372	12.5885	9.16443	-21.45081	0
0.6165	4.63257	11.48071	9.56726	-19.43665	20.04089
0.617	-0.70496	9.97009	16.3147	-20.34302	22.45789
0.6175	1.10779	11.07788	8.15735	-18.02673	29.91028
0.618	0.20142	8.35876	10.17151	-16.01257	31.82373
0.6185	-0.90637	5.53894	9.36584	-11.88354	32.52869
0.619	2.01416	4.33044	4.02832	-11.58142	34.24072
0.6195	-2.31628	5.63965	0.70496	-7.45239	27.89612
0.62	-8.45947	2.31628	1.00708	-1.71204	21.3501
0.6205	-4.93469	4.12903	-0.10071	-2.5177	18.42957
0.621	-10.47363	0.90637	0.90637	7.75452	12.38708
0.6215	-16.3147	-7.65381	-0.70496	12.89062	-1.51062
0.622	-17.6239	-9.56726	0.70496	10.67505	-23.36426
0.6225	-12.38708	-10.87646	-4.73328	10.67505	-23.8678
0.623	-10.17151	-9.16443	-8.56018	12.28638	-23.76709
0.6235	-13.89771	-11.17859	-13.39417	11.98425	-17.6239
0.624	-6.14319	-4.93469	-12.99133	11.78284	-21.24939
0.6245	-2.5177	-6.94885	-17.42249	12.38708	-22.86072
0.625	-13.29346	-5.33752	-12.38708	11.07788	-20.44373
0.6255	-13.39417	-0.60425	-14.50195	8.56018	-21.75293
0.626	-16.01257	-8.56018	-10.77576	16.41541	-12.38708
0.6265	-13.49487	-16.01257	-20.94727	9.66797	-2.31628
0.627	-8.35876	-16.01257	-21.45081	9.76868	-1.10779
0.6275	-8.35876	-13.39417	-16.91895	10.77576	-2.21558
0.628	4.22974	-9.86938	-0.50354	13.09204	-3.22266
0.6285	5.53894	-10.37292	-2.92053	7.45239	-8.56018
0.629	7.35168	-10.87646	-0.30212	6.84814	-9.56726
0.6295	3.42407	-13.99841	-2.5177	1.3092	-10.77576
0.63	-1.71204	-11.17859	-4.43115	3.8269	-10.87646
0.6305	2.21558	-7.5531	3.02124	-1.40991	-9.97009
0.631	-0.80566	-7.5531	6.14319	-4.93469	-4.93469
0.6315	6.14319	-2.11487	7.95593	-1.91345	-7.85522
0.632	12.89062	1.61133	6.54602	-8.7616	-5.84106
0.6325	10.17151	3.62549	13.89771	-13.39417	-0.90637
0.633	1.3092	9.66797	5.94177	-9.86938	-1.3092
0.6335	0.50354	13.797	-5.53894	-8.35876	-8.25806
0.634	-10.37292	10.67505	-5.74036	-9.76868	-2.21558
0.6345	-5.13611	3.92761	0.50354	-18.63098	-1.51062
0.635	-7.85522	5.33752	-7.75452	-14.09912	-5.0354
0.6355	-13.797	13.69629	-17.32178	-13.19275	1.40991
0.636	-12.99133	16.21399	-14.40125	-20.04089	2.21558
0.6365	-8.8623	24.37134	-1.91345	-19.23523	-1.91345
0.637	-4.43115	25.27771	19.53735	-15.1062	-2.41699
0.6375	1.2085	34.64355	11.38	-17.22107	-8.15735
0.638	8.56018	25.88196	15.40833	-12.38708	-6.14319
0.6385	10.37292	11.2793	19.83948	-6.94885	-3.92761
0.639	2.92053	1.81274	17.92603	-9.97009	0.50354
0.6395	4.12903	-3.22266	11.17859	-3.02124	-0.30212
0.64	-0.30212	-4.63257	5.94177	3.42407	-3.12195
0.6405	-4.93469	-4.33044	4.43115	1.10779	1.91345
0.641	-6.2439	-7.35168	0.50354	3.92761	-4.63257
0.6415	-12.78992	-8.7616	-3.52478	6.3446	3.12195
0.642	-12.38708	-17.6239	-6.44531	11.68213	12.18567
0.6425	-12.38708	-15.50903	-1.40991	2.71912	14.60266
0.643	-12.38708	-16.61682	-6.14319	7.75452	13.99841
0.6435	-12.38708	-22.6593	-10.27222	10.17151	8.15735
0.644	-12.38708	-22.35718	-18.93311	13.09204	13.09204
0.6445	-12.38708	-26.48621	-20.04089	16.41541	7.5531
0.645	-12.38708	-25.57983	-26.58691	15.30762	6.04248
0.6455	-12.38708	-20.44373	-31.01807	12.68921	6.04248
0.646	-12.38708	-25.37842	-19.53735	7.75452	-1.2085
0.6465	-12.38708	-21.45081	0.60425	8.66089	5.33752
0.647	-12.38708	-19.73877	-7.15027	9.86938	4.12903
0.6475	-12.38708	-15.00549	-15.50903	15.71045	11.38
0.648	-12.38708	-20.84656	-23.66638	13.19275	14.80408
0.6485	-12.38708	-20.1416	-27.09045	6.94885	13.19275
0.649	-12.38708	-16.81824	-4.93469	6.44531	16.21399
0.6495	-5.13611	-16.41541	10.67505	-2.21558	17.52319
0.65	-7.15027	-7.65381	16.81824	-3.22266	12.68921
0.6505	-3.92761	-12.68921	6.54602	0	11.78284
0.651	-5.23682	-3.52478	8.56018	-9.56726	5.13611
0.6515	-2.92053	-3.32336	4.53186	-13.59558	3.32336
0.652	-4.22974	3.22266	-0.70496	-11.2793	0.10071
0.6525	-0.50354	3.8269	-4.12903	-14.40125	-4.63257
0.653	1.10779	1.91345	-0.70496	-19.83948	-0.60425
0.6535	1.00708	4.12903	0.20142	-19.13452	-1.71204
0.654	5.43823	12.89062	-2.92053	-15.91187	1.3092
0.6545	4.53186	1.00708	8.15735	0.30212	-12.28638
0.655	3.62549	4.63257	3.12195	-3.22266	-18.73169
0.6555	4.63257	2.61841	12.99133	-1.71204	-24.27063
0.656	3.42407	2.5177	16.81824	-3.7262	-14.50195
0.6565	4.63257	10.77576	3.7262	-8.56018	-12.5885
0.657	5.13611	15.50903	6.04248	-8.66089	-12.99133
0.6575	11.78284	17.6239	4.93469	-12.5885	-16.81824
0.658	9.06372	14.60266	9.46655	-17.22107	-13.19275
0.6585	7.15027	8.45947	10.97717	-13.89771	-13.69629
0.659	5.0354	0.70496	15.00549	-11.98425	-7.5531
0.6595	7.65381	-3.42407	5.23682	-9.26514	-2.92053
0.66	7.5531	-7.75452	2.11487	-6.44531	-2.92053
0.6605	4.93469	-11.48071	5.0354	1.51062	-2.31628
0.661	3.12195	-14.80408	6.2439	4.73328	-2.5177
0.6615	4.12903	-10.57434	8.66089	-1.71204	2.61841
0.662	4.12903	-7.5531	0.90637	-0.40283	6.94885
0.6625	0.30212	-10.37292	-1.3092	3.52478	3.62549
0.663	-1.3092	-13.09204	5.84106	7.95593	-7.35168
0.6635	3.7262	-13.39417	-1.91345	4.93469	-19.13452
0.664	-6.14319	-16.71753	-7.5531	10.97717	-20.04089
0.6645	-2.11487	-15.40833	-18.42957	10.97717	-19.94019
0.665	-4.12903	-15.81116	-17.92603	12.18567	-23.26355
0.6655	-3.8269	-16.41541	-22.86072	12.5885	-23.76709
0.666	0	-8.56018	-42.90161	10.27222	-15.60974
0.6665	-6.54602	-10.57434	-32.02515	11.38	-7.35168
0.667	-10.67505	-7.95593	-19.23523	11.78284	5.53894
0.6675	-6.14319	-17.6239	1.91345	18.22815	13.69629
0.668	-5.84106	-20.34302	4.53186	20.64514	13.39417
0.6685	-4.12903	-23.96851	7.25098	17.12036	13.59558
0.669	-6.74744	-17.6239	-7.04956	6.54602	6.84814
0.6695	-9.97009	-3.12195	-6.14319	10.37292	9.36584
0.67	-9.97009	-5.23682	-9.76868	2.21558	6.14319
0.6705	-12.78992	-1.71204	-1.40991	-11.58142	9.36584
0.671	-14.50195	-0.30212	-13.99841	-16.41541	14.40125
0.6715	-12.18567	3.52478	0.30212	-16.61682	16.3147
0.672	-15.1062	3.02124	-6.14319	-20.74585	11.78284
0.6725	-9.26514	2.5177	-4.43115	-16.51611	22.76001
0.673	-10.77576	0.90637	-0.10071	-16.61682	11.07788
0.6735	-14.30054	7.15027	-0.10071	-18.63098	11.78284
0.674	-1.10779	2.92053	5.94177	-14.40125	8.45947
0.6745	-10.17151	8.15735	4.33044	-2.41699	10.57434
0.675	-4.12903	1.40991	5.33752	-11.07788	5.0354
0.6755	-11.38	3.62549	-0.30212	-8.25806	4.22974
0.676	-6.2439	4.22974	3.52478	-9.06372	0.60425
0.6765	-0.70496	2.61841	1.81274	-3.32336	5.0354
0.677	3.7262	8.8623	-0.20142	-3.62549	-6.04248
0.6775	3.7262	7.75452	3.7262	-2.5177	-6.74744
0.678	3.7262	9.36584	2.71912	1.40991	-7.5531
0.6785	3.7262	9.26514	5.0354	-7.04956	-4.33044
0.679	3.7262	-0.20142	-2.5177	-7.75452	-3.8269
0.6795	3.7262	3.52478	0	-1.61133	-4.02832
0.68	3.7262	5.84106	-3.42407	-2.5177	-1.2085
0.6805	3.7262	-0.50354	-5.13611	-4.73328	3.02124
0.681	3.7262	-4.02832	-3.02124	2.31628	5.43823
0.6815	3.7262	-5.74036	-4.12903	-2.31628	-1.81274
0.682	3.7262	-9.97009	-9.26514	3.02124	-1.91345
0.6825	3.7262	-8.66089	-6.14319	4.12903	1.91345
0.683	3.7262	-6.54602	-15.71045	9.36584	0.50354
0.6835	3.7262	-13.09204	-21.85364	5.43823	3.22266
0.684	3.7262	-12.5885	-19.53735	12.18567	1.2085
0.6845	-2.92053	-8.7616	-17.52319	17.01965	1.3092
0.685	-7.25098	-6.94885	-18.93311	21.04797	-2.41699
0.6855	-10.57434	-11.38	-12.38708	11.17859	-2.01416
0.686	-6.64673	-10.77576	-15.60974	14.90479	1.81274
0.6865	-11.88354	-11.58142	-17.12036	11.78284	-0.80566
0.687	-9.06372	-15.00549	-21.24939	9.76868	2.92053
0.6875	-6.94885	-14.30054	-19.53735	12.28638	-4.83398
0.688	-1.61133	-13.59558	-13.19275	11.58142	-1.10779
0.6885	-3.42407	-16.51611	-10.77576	6.44531	-1.40991
0.689	-10.17151	-11.78284	-14.80408	4.73328	-0.90637
0.6895	-3.62549	-6.3446	-10.17151	6.94885	-3.12195
0.69	-0.50354	-3.8269	-4.43115	0.60425	-4.33044
0.6905	2.31628	-10.27222	-4.12903	1.81274	-7.15027
0.691	-2.11487	0.20142	-3.52478	1.2085	-9.97009
0.6915	3.7262	-2.31628	-1.10779	0.10071	-8.35876
0.692	-0.20142	-1.3092	0.20142	-7.5531	-6.54602
0.6925	4.83398	0.20142	3.7262	-10.87646	-9.46655
0.693	4.53186	4.22974	6.74744	-13.797	-14.80408
0.6935	0	1.91345	6.64673	-8.56018	-9.36584
0.694	-3.22266	9.36584	10.27222	-9.97009	0.50354
0.6945	-8.8623	10.37292	2.31628	-19.53735	-7.5531
0.695	-6.44531	17.52319	5.13611	-18.93311	-8.96301
0.6955	-7.95593	20.1416	9.86938	-13.49487	-11.78284
0.696	-2.71912	21.85364	11.78284	-20.24231	-14.09912
0.6965	1.61133	11.38	16.3147	-28.19824	-13.99841
0.697	-1.10779	13.49487	15.91187	-29.70886	-20.94727
0.6975	-2.21558	12.5885	7.45239	-30.2124	-12.99133
0.698	0.90637	13.797	4.33044	-36.95984	-19.63806
0.6985	-2.71912	5.74036	2.41699	-33.63647	-16.51611
0.699	-0.10071	3.62549	2.5177	-30.51453	-5.74036
0.6995	-5.13611	-4.33044	-0.20142	-21.04797	11.38
0.7	-1.3092	-4.12903	1.3092	-5.63965	21.45081
0.7005	-8.7616	-0.70496	-2.71912	8.15735	22.35718
0.701	-1.61133	-2.5177	3.12195	17.92603	14.09912
0.7015	-7.35168	-2.92053	1.91345	25.07629	8.66089
0.702	-4.12903	-6.3446	-3.92761	23.06213	2.5177
0.7025	-6.74744	-9.36584	-6.3446	21.04797	-2.11487
0.703	-3.8269	-8.45947	-7.95593	25.37842	-5.74036
0.7035	1.00708	-6.74744	-11.88354	30.91736	-0.30212
0.704	-4.22974	-8.05664	-15.91187	23.16284	-5.23682
0.7045	-2.01416	-7.45239	-14.09912	23.26355	-4.33044
0.705	-2.71912	-8.7616	-11.58142	20.64514	1.2085
0.7055	-0.90637	-9.66797	-9.16443	13.89771	-1.3092
0.706	-0.70496	-6.94885	-21.65222	15.50903	2.81982
0.7065	-5.23682	-13.19275	-20.64514	17.01965	6.54602
0.707	-12.08496	-13.797	-15.81116	17.52319	6.3446
0.7075	-7.95593	-14.09912	-14.70337	21.14868	5.33752
0.708	-11.17859	-11.88354	-13.39417	14.90479	7.75452
0.7085	-9.36584	-12.78992	-12.99133	15.00549	7.75452
0.709	-9.36584	-13.99841	-7.15027	12.99133	8.35876
0.7095	-10.0708	-9.97009	-13.39417	6.94885	5.63965
0.71	-10.67505	-2.41699	-7.25098	5.94177	3.7262
0.7105	-11.78284	-3.52478	-7.5531	1.10779	1.91345
0.711	-7.95593	-0.90637	-3.52478	-0.60425	-2.21558
0.7115	-8.7616	6.14319	-3.12195	3.92761	0.10071
0.712	-10.57434	0.10071	-3.42407	-7.15027	1.91345
0.7125	-15.40833	3.42407	1.10779	-9.97009	-4.73328
0.713	-15.60974	9.06372	2.71912	-10.97717	-6.94885
0.7135	-13.59558	10.97717	4.73328	-9.26514	-7.35168
0.714	-13.797	12.5885	2.5177	-15.50903	-9.26514
0.7145	-4.73328	10.77576	10.37292	-17.22107	-12.08496
0.715	-1.10779	17.01965	7.25098	-18.12744	-10.17151
0.7155	-1.10779	13.49487	10.97717	-19.94019	-9.16443
0.716	3.92761	17.72461	11.48071	-21.14868	0.70496
0.7165	0.60425	14.80408	11.07788	-27.99683	1.3092
0.717	2.31628	11.78284	9.76868	-28.70178	5.74036
0.7175	7.5531	13.19275	13.19275	-26.08337	6.04248
0.718	3.02124	11.48071	13.59558	-24.06921	11.98425
0.7185	-6.64673	12.28638	5.13611	-25.07629	12.38708
0.719	-5.33752	14.80408	2.71912	-27.89612	11.38
0.7195	-7.15027	10.17151	-6.84814	-23.46497	9.46655
0.72	-11.2793	5.43823	-10.37292	-16.41541	13.49487
0.7205	-3.8269	6.14319	-18.22815	5.84106	26.08337
0.721	-2.5177	-5.23682	-18.63098	19.43665	22.35718
0.7215	-2.21558	-16.51611	-6.64673	32.32727	21.3501
0.722	-5.23682	-24.27063	-3.8269	46.42639	8.66089
0.7225	-12.38708	-21.3501	-5.0354	52.36816	-0.50354
0.723	-10.67505	-25.37842	-12.68921	56.09436	-12.89062
0.7235	-4.73328	-16.51611	-20.84656	50.55542	-23.06213
0.724	-12.78992	-12.18567	-18.8324	39.77966	-29.20532
0.7245	-7.35168	-15.20691	-13.99841	19.03381	-25.47913
0.725	-5.13611	-14.40125	-19.63806	-6.3446	-16.01257
0.7255	-7.15027	-10.17151	-14.70337	-22.25647	0.90637
0.726	-3.42407	-15.60974	-4.43115	-23.76709	9.16443
0.7265	3.52478	-16.41541	-5.0354	-13.797	2.92053
0.727	1.61133	-15.40833	-6.04248	-5.53894	9.56726
0.7275	3.02124	-18.63098	-9.56726	-14.60266	11.07788
0.728	0.80566	-15.91187	-13.89771	-4.63257	10.17151
0.7285	2.61841	-14.70337	-12.38708	-9.97009	15.91187
0.729	3.8269	-10.77576	-9.97009	-13.69629	8.25806
0.7295	2.92053	-19.94019	-6.2439	-10.17151	10.57434
0.73	2.11487	-10.37292	-4.73328	-7.5531	10.77576
0.7305	-1.00708	-12.38708	-10.37292	0.30212	9.26514
0.731	-0.70496	-8.25806	-2.11487	4.73328	-2.61841
0.7315	-0.90637	-2.41699	-5.0354	4.83398	-14.80408
0.732	-3.12195	-0.50354	-0.10071	9.97009	-21.04797
0.7325	-5.84106	3.7262	0.50354	11.17859	-24.77417
0.733	-7.35168	1.91345	3.52478	-7.35168	-30.01099
0.7335	-10.37292	10.17151	7.25098	-16.41541	-23.26355
0.734	-11.2793	16.91895	13.59558	-22.76001	-18.8324
0.7345	-15.60974	15.20691	10.87646	-25.177	-23.8678
0.735	-6.94885	16.3147	6.14319	-20.44373	-18.42957
0.7355	-7.85522	25.57983	8.45947	-13.19275	-11.38
0.736	-5.74036	17.42249	7.45239	-19.43665	-18.02673
0.7365	-6.04248	21.04797	12.48779	-25.68054	-14.30054
0.737	0.10071	27.89612	9.76868	-13.99841	-11.58142
0.7375	1.00708	22.05505	5.0354	-17.82532	-8.35876
0.738	0	17.01965	-4.63257	-13.49487	-5.0354
0.7385	-3.52478	9.36584	-2.71912	-14.70337	-8.35876
0.739	-4.73328	4.63257	-1.10779	-15.91187	-7.35168
0.7395	0.90637	1.3092	-3.7262	-12.18567	-8.25806
0.74	-5.13611	-5.63965	2.61841	1.81274	-4.12903
0.7405	-9.56726	-4.22974	0.70496	4.12903	-3.12195
0.741	-6.44531	-10.0708	3.42407	5.0354	-10.57434
0.7415	-5.13611	-17.01965	2.81982	3.02124	-8.45947
0.742	1.3092	-17.52319	-0.90637	10.17151	-4.12903
0.7425	-2.11487	-13.99841	-6.2439	6.74744	-8.25806
0.743	-2.11487	-18.02673	-7.45239	9.46655	-4.33044
0.7435	1.61133	-16.3147	-3.52478	19.73877	-1.10779
0.744	-8.15735	-19.53735	-11.48071	15.91187	-5.33752
0.7445	-0.30212	-24.27063	-1.00708	19.33594	-1.00708
0.745	-7.35168	-30.91736	-7.95593	21.65222	-0.90637
0.7455	0.40283	-34.34143	-11.98425	18.02673	1.71204
0.746	-0.40283	-30.91736	-15.30762	17.22107	-0.10071
0.7465	7.25098	-32.42798	-12.18567	13.09204	4.12903
0.747	11.68213	-23.06213	-16.01257	9.97009	-0.40283
0.7475	12.78992	-19.73877	-11.58142	4.43115	7.95593
0.748	1.40991	-15.20691	-13.09204	5.43823	5.33752
0.7485	-0.30212	-22.35718	-4.83398	7.5531	0.90637
0.749	7.25098	-22.15576	9.97009	10.0708	5.53894
0.7495	0.70496	-15.40833	10.57434	-1.51062	2.31628
0.75	1.10779	-11.98425	2.61841	-0.30212	4.83398
0.7505	-0.80566	-15.50903	1.40991	-0.10071	0.40283
0.751	3.7262	-8.25806	-4.12903	-6.14319	4.63257
0.7515	2.71912	-7.45239	-8.8623	-5.33752	1.81274
0.752	4.93469	-9.56726	-22.86072	-6.2439	-6.54602
0.7525	5.63965	-12.89062	-22.05505	-6.14319	-9.66797
0.753	1.91345	-10.77576	-18.93311	-5.33752	-5.94177
0.7535	10.27222	-4.73328	2.5177	-11.98425	-7.5531
0.754	6.74744	0.80566	20.34302	-12.78992	-15.40833
0.7545	-8.56018	7.45239	31.21948	-10.67505	-10.0708
0.755	-15.60974	12.28638	29.50745	-12.38708	-13.29346
0.7555	-13.797	15.20691	20.44373	-13.59558	-9.36584
0.756	-11.17859	15.40833	12.28638	-6.94885	-7.65381
0.7565	-11.78284	32.7301	3.32336	-14.80408	-2.71912
0.757	-2.11487	20.74585	0.90637	-11.38	2.5177
0.7575	-5.74036	14.60266	-0.10071	-11.38	3.52478
0.758	-4.63257	8.56018	5.53894	-19.23523	2.01416
0.7585	-4.12903	14.19983	12.99133	-21.55151	-2.92053
0.759	-2.31628	4.43115	5.13611	-14.80408	-14.70337
0.7595	5.13611	9.46655	12.18567	-14.80408	-16.01257
0.76	3.52478	5.43823	2.01416	-7.35168	-22.55859
0.7605	-9.16443	9.36584	-5.84106	-3.92761	-15.40833
0.761	-14.80408	8.45947	-0.10071	-5.74036	-12.5885
0.7615	-18.02673	3.32336	-0.70496	-3.7262	-0.90637
0.762	-15.1062	1.3092	-4.12903	5.13611	3.8269
0.7625	-7.35168	-7.35168	-4.63257	7.35168	14.19983
0.763	-3.02124	-7.5531	-8.35876	4.53186	21.45081
0.7635	-0.70496	-8.35876	-12.89062	18.8324	26.08337
0.764	4.22974	-12.99133	-16.01257	17.01965	13.09204
0.7645	15.1062	-15.60974	-26.68762	9.46655	12.48779
0.765	15.60974	-6.04248	-29.00391	15.1062	6.3446
0.7655	7.75452	-5.74036	-26.88904	9.76868	10.17151
0.766	10.77576	-13.29346	-9.16443	10.17151	3.02124
0.7665	2.31628	-6.84814	11.07788	12.99133	2.92053
0.767	5.0354	-5.13611	7.35168	11.38	2.81982
0.7675	0.20142	-15.20691	-3.62549	16.3147	-1.3092
0.768	2.31628	-18.63098	-8.7616	10.17151	6.2439
0.7685	-5.23682	-13.29346	-12.38708	8.7616	3.62549
0.769	-0.20142	-10.47363	-2.31628	0.20142	-0.70496
0.7695	5.94177	0.40283	-3.32336	-11.38	5.13611
0.77	1.10779	-1.51062	-9.56726	-16.61682	13.29346
0.7705	-3.62549	7.5531	-1.91345	-22.96143	5.63965
0.771	-4.53186	1.81274	-3.12195	-22.15576	7.15027
0.7715	-2.71912	0.60425	3.42407	-24.37134	6.14319
0.772	-5.33752	4.02832	9.76868	-17.52319	17.52319
0.7725	-4.02832	7.15027	-5.13611	-17.92603	19.63806
0.773	-2.5177	7.85522	-7.35168	-29.60815	26.48621
0.7735	3.02124	11.38	-1.40991	-26.3855	25.177
0.774	0.10071	5.23682	-0.70496	-26.08337	26.48621
0.7745	-0.10071	-1.51062	0.30212	-15.40833	35.04639
0.775	-2.31628	0.50354	2.01416	-1.91345	31.32019
0.7755	-7.35168	14.90479	9.06372	7.35168	20.94727
0.776	-6.74744	10.97717	8.96301	8.96301	7.75452
0.7765	-6.14319	7.75452	6.84814	13.29346	-3.52478
0.777	-3.8269	4.93469	11.2793	8.66089	-8.7616
0.7775	-4.22974	11.2793	9.56726	16.41541	-29.50745
0.778	-6.94885	9.06372	8.05664	9.36584	-29.91028
0.7785	-2.71912	9.97009	0.30212	1.61133	-32.52869
0.779	-12.5885	12.89062	3.32336	-2.41699	-25.88196
0.7795	-7.5531	9.16443	4.73328	-3.8269	-26.28479
0.78	-16.11328	9.46655	6.44531	-1.10779	-22.55859
0.7805	-15.71045	10.87646	3.32336	-3.32336	-17.22107
0.781	-15.40833	5.94177	-4.33044	-2.11487	-11.98425
0.7815	-11.58142	-4.73328	-11.2793	1.91345	-8.25806
0.782	-9.16443	-7.5531	-1.61133	1.91345	-8.7616
0.7825	-15.50903	-7.85522	-2.71912	10.67505	-6.54602
0.783	-13.39417	-7.65381	-9.56726	4.33044	-1.71204
0.7835	-11.38	-6.14319	-4.63257	7.45239	-7.15027
0.784	-12.68921	-8.35876	-15.40833	17.12036	-9.56726
0.7845	-7.95593	-0.10071	-13.89771	12.68921	-8.45947
0.785	-0.30212	-7.35168	-17.32178	14.70337	-3.8269
0.7855	-4.33044	-13.09204	-14.80408	6.44531	-4.73328
0.786	-8.15735	-17.52319	-14.70337	4.33044	-7.95593
0.7865	-4.43115	-20.44373	-13.69629	-1.51062	1.10779
0.787	-1.51062	-17.6239	-18.53027	5.0354	-2.41699
0.7875	-6.04248	-22.86072	-16.51611	16.41541	-0.10071
0.788	-5.94177	-22.05505	-14.50195	23.8678	-0.40283
0.7885	-1.10779	-12.78992	-12.5885	28.70178	6.84814
0.789	-4.63257	-9.16443	-12.89062	8.35876	8.96301
0.7895	-2.92053	-5.13611	-20.24231	-2.71912	8.96301
0.79	-3.32336	-11.2793	-15.20691	-2.5177	8.96301
0.7905	-4.43115	-7.95593	-5.63965	-0.50354	8.96301
0.791	-9.56726	-2.61841	-0.60425	1.91345	8.96301
0.7915	-3.42407	-0.50354	3.92761	-4.63257	8.96301
0.792	0.10071	0.10071	3.02124	-14.19983	8.96301
0.7925	-0.90637	-1.81274	3.02124	-13.39417	8.96301
0.793	-1.91345	3.92761	5.94177	-22.05505	8.96301
0.7935	4.02832	0.10071	6.04248	-26.88904	8.96301
0.794	-0.90637	1.91345	10.67505	-27.99683	8.96301
0.7945	-9.36584	5.53894	10.77576	-21.65222	8.96301
0.795	-2.61841	6.94885	11.58142	-27.6947	8.96301
0.7955	-0.50354	3.22266	12.28638	-22.05505	8.96301
0.796	2.11487	6.44531	9.16443	-4.12903	8.96301
0.7965	0.20142	12.89062	8.56018	6.3446	-3.62549
0.797	-1.81274	8.66089	15.50903	0.50354	-1.91345
0.7975	0.10071	8.15735	10.57434	-6.2439	-1.10779
0.798	-3.7262	13.39417	3.7262	-5.74036	-8.15735
0.7985	-0.20142	12.68921	1.10779	-0.80566	-13.59558
0.799	-5.74036	10.47363	1.3092	2.5177	-10.67505
0.7995	-7.15027	6.2439	-5.74036	1.40991	-6.14319
0.8	-8.7616	6.74744	-3.02124	6.04248	1.00708
0.8005	-9.36584	-4.22974	-2.81982	2.5177	-1.71204
0.801	-12.18567	-5.13611	0.70496	0.20142	1.10779
0.8015	-11.17859	-1.10779	-1.3092	2.11487	-3.12195
0.802	-7.75452	-4.63257	0.50354	0.40283	2.11487
0.8025	-12.28638	-2.5177	-3.12195	3.52478	6.14319
0.803	-4.93469	-11.48071	-8.15735	9.76868	4.93469
0.8035	-2.81982	-8.15735	-5.53894	18.02673	2.21558
0.804	-8.56018	-10.77576	-10.37292	18.42957	2.61841
0.8045	2.92053	-9.76868	-4.33044	15.20691	-1.91345
0.805	-0.10071	-10.27222	-0.70496	14.60266	1.71204
0.8055	-4.22974	-13.89771	-2.01416	18.22815	-0.70496
0.806	-0.10071	-10.97717	-3.8269	13.59558	3.42407
0.8065	-3.62549	-13.29346	-12.48779	14.09912	-0.10071
0.807	-6.94885	-9.26514	-9.06372	10.87646	-7.15027
0.8075	-10.27222	-9.86938	-24.87488	10.67505	-4.73328
0.808	-7.5531	-7.95593	-22.45789	8.56018	-3.12195
0.8085	-7.15027	-4.73328	-15.60974	8.15735	-3.02124
0.809	-7.85522	-1.91345	-6.74744	9.46655	-9.86938
0.8095	-6.84814	-3.32336	-2.71912	15.1062	-2.5177
0.81	-7.45239	-2.41699	-1.91345	6.54602	1.3092
0.8105	-7.35168	6.94885	-1.81274	7.35168	-9.56726
0.811	-9.26514	0.90637	2.92053	4.12903	-8.96301
0.8115	-1.2085	2.5177	4.22974	0.10071	-18.22815
0.812	2.61841	0.80566	2.92053	-8.66089	-17.52319
0.8125	1.91345	9.56726	-6.04248	-12.68921	-16.51611
0.813	2.61841	9.16443	-3.92761	-12.99133	-11.2793
0.8135	-5.94177	5.13611	6.04248	-16.41541	-17.01965
0.814	3.02124	4.12903	2.31628	-15.00549	-9.97009
0.8145	2.31628	-1.00708	19.73877	-8.7616	-4.83398
0.815	-0.60425	-1.91345	12.28638	-8.96301	-1.00708
0.8155	6.54602	0.60425	4.43115	-13.29346	0.90637
0.816	3.7262	11.38	-6.04248	-15.20691	7.5531
0.8165	-0.90637	8.7616	-2.11487	-12.78992	-0.40283
0.817	-3.42407	15.00549	-3.7262	-18.02673	-1.81274
0.8175	-4.33044	13.59558	3.02124	-18.42957	1.91345
0.818	-9.06372	7.15027	15.60974	-17.12036	11.38
0.8185	-5.23682	5.74036	20.84656	-15.40833	6.04248
0.819	-2.01416	5.53894	24.67346	-14.09912	9.36584
0.8195	-2.61841	6.54602	8.25806	-14.70337	6.64673
0.82	-7.45239	-0.10071	4.93469	-4.93469	10.17151
0.8205	-1.10779	-4.12903	3.62549	1.40991	1.91345
0.821	-3.92761	-6.14319	-0.50354	2.01416	11.78284
0.8215	2.31628	-9.16443	-4.33044	5.63965	6.04248
0.822	0.90637	-6.3446	-1.81274	12.38708	10.37292
0.8225	4.22974	-12.99133	-4.63257	18.53027	8.45947
0.823	-0.10071	-13.39417	-4.53186	18.93311	12.48779
0.8235	-2.71912	-19.23523	-5.13611	24.27063	8.7616
0.824	-3.22266	-15.50903	-9.36584	28.70178	9.06372
0.8245	-8.7616	-15.30762	-6.44531	28.29895	2.31628
0.825	-6.64673	-17.6239	-11.88354	29.10461	-6.94885
0.8255	-1.2085	-14.30054	-12.18567	32.62939	-16.61682
0.826	-1.81274	-13.49487	-13.69629	21.65222	-11.78284
0.8265	-6.74744	-13.69629	-4.83398	-5.63965	-0.80566
0.827	-5.13611	-17.82532	-0.60425	-26.58691	5.23682
0.8275	-3.52478	-17.22107	-6.3446	-18.8324	9.76868
0.828	2.31628	-13.29346	-18.63098	-12.18567	7.25098
0.8285	-1.71204	-12.18567	-14.19983	-3.22266	4.12903
0.829	-4.73328	-8.35876	-14.40125	-2.21558	-1.10779
0.8295	-4.73328	-7.35168	-8.56018	-5.74036	-4.12903
0.83	-7.15027	-1.3092	-8.56018	-5.13611	-6.54602
0.8305	-5.0354	-1.51062	-5.33752	-5.43823	-5.53894
0.831	-2.31628	-8.05664	-9.76868	-10.17151	-1.10779
0.8315	6.44531	-10.87646	1.61133	-11.78284	-2.5177
0.832	2.21558	-0.30212	-0.10071	-13.89771	-4.02832
0.8325	0.10071	5.53894	-2.5177	-5.13611	-2.5177
0.833	4.63257	9.46655	4.33044	-6.84814	-3.52478
0.8335	7.15027	2.81982	6.14319	-15.81116	-2.71912
0.834	3.32336	-0.80566	13.39417	-21.24939	-5.94177
0.8345	-1.10779	-6.74744	5.13611	-20.34302	-6.54602
0.835	7.85522	1.71204	7.5531	-18.73169	-5.74036
0.8355	6.54602	10.27222	1.81274	-21.14868	-0.10071
0.836	0.40283	9.76868	0.80566	-16.91895	-4.73328
0.8365	4.12903	7.95593	-4.12903	-26.08337	-7.35168
0.837	2.31628	5.23682	-24.67346	-13.797	-2.21558
0.8375	2.5177	3.92761	-27.59399	-18.02673	-0.30212
0.838	0.70496	7.25098	-31.72302	-22.25647	5.53894
0.8385	4.93469	21.24939	-28.39966	-20.54443	-6.74744
0.839	4.33044	14.80408	6.54602	-15.1062	-0.70496
0.8395	4.22974	16.3147	30.71594	-6.94885	2.21558
0.84	-1.10779	14.60266	31.72302	-0.60425	-0.30212
0.8405	-0.90637	12.18567	20.44373	-7.85522	8.66089
0.841	-11.07788	19.13452	5.53894	-7.15027	0.70496
0.8415	-2.31628	10.27222	0.90637	1.91345	2.71912
0.842	-6.3446	11.48071	-1.40991	8.35876	7.15027
0.8425	-10.97717	15.00549	-9.97009	12.08496	13.99841
0.843	-11.98425	5.53894	-1.71204	17.82532	11.07788
0.8435	-20.04089	2.61841	-0.20142	18.32886	10.87646
0.844	-17.42249	-3.32336	-3.8269	17.82532	4.93469
0.8445	-21.55151	6.84814	-13.39417	12.5885	-6.54602
0.845	-15.40833	4.43115	-25.27771	12.48779	-2.5177
0.8455	-12.28638	-0.10071	-23.06213	7.25098	-7.65381
0.846	-11.2793	-11.07788	-14.80408	3.22266	-3.42407
0.8465	-9.46655	-11.17859	-2.5177	6.84814	5.74036
0.847	-6.3446	-14.40125	10.97717	7.15027	9.97009
0.8475	-7.75452	-27.59399	5.53894	5.84106	14.80408
0.848	-6.64673	-26.68762	9.16443	3.22266	21.3501
0.8485	-8.96301	-25.57983	2.11487	1.51062	26.68762
0.849	-6.3446	-25.88196	-3.52478	8.7616	17.32178
0.8495	-3.52478	-19.23523	-3.02124	4.53186	12.5885
0.85	-4.02832	-19.94019	-6.74744	8.96301	11.78284
0.8505	-6.44531	-16.21399	-15.50903	5.43823	1.10779
0.851	-8.8623	-12.78992	-0.90637	14.19983	-10.47363
0.8515	-14.80408	-7.95593	6.94885	10.97717	-16.41541
0.852	-15.20691	-10.77576	11.38	4.12903	-22.25647
0.8525	-10.57434	-3.52478	10.47363	-10.47363	-26.18408
0.853	-7.85522	-0.90637	4.63257	-16.41541	-33.23364
0.8535	-7.95593	-8.7616	5.13611	-12.38708	-19.63806
0.854	-2.92053	-4.53186	5.53894	-11.88354	-12.5885
0.8545	6.84814	-2.5177	3.92761	-11.17859	-6.64673
0.855	1.00708	0.50354	6.14319	-0.50354	-7.35168
0.8555	0.80566	11.2793	7.75452	-12.38708	-10.17151
0.856	-0.50354	12.08496	9.97009	-12.5885	-6.3446
0.8565	2.31628	13.59558	5.33752	-12.08496	-3.92761
0.857	5.74036	9.36584	5.84106	-13.69629	-6.64673
0.8575	10.77576	5.94177	9.86938	-5.53894	2.5177
0.858	11.2793	5.0354	8.96301	-12.89062	-5.74036
0.8585	14.40125	-1.40991	3.92761	-8.35876	-1.2085
0.859	11.98425	-6.94885	-3.8269	-5.74036	6.14319
0.8595	11.98425	-6.14319	-0.70496	-0.30212	5.74036
0.86	16.51611	-8.8623	-4.73328	-0.10071	-1.91345
0.8605	18.73169	-8.35876	-2.41699	-0.50354	-4.12903
0.861	15.1062	-11.48071	4.33044	2.71912	-1.40991
0.8615	2.92053	-11.88354	2.92053	-2.41699	-6.74744
0.862	4.63257	-5.53894	5.13611	-7.35168	-9.66797
0.8625	1.40991	-1.91345	6.14319	-10.37292	-15.00549
0.863	4.02832	-7.5531	2.71912	-11.2793	-12.78992
0.8635	-6.44531	-7.75452	-8.15735	-15.00549	-4.33044
0.864	0.80566	-10.97717	-13.89771	-11.17859	3.92761
0.8645	-2.31628	-8.35876	-14.30054	-16.11328	11.78284
0.865	9.97009	-9.46655	-21.55151	-8.05664	9.66797
0.8655	0.50354	-15.60974	-24.87488	-0.90637	9.76868
0.866	-5.13611	-10.97717	-23.06213	-8.66089	15.81116
0.8665	-4.22974	-13.49487	-21.04797	-4.22974	28.09753
0.867	-8.35876	-15.1062	-23.26355	12.68921	27.59399
0.8675	-16.3147	-14.40125	-20.84656	32.42798	25.68054
0.868	-22.55859	-18.93311	-13.797	50.15259	12.5885
0.8685	-13.59558	-19.53735	-10.37292	52.56958	-3.7262
0.869	-16.41541	-8.8623	-11.07788	44.61365	-12.5885
0.8695	-17.6239	-6.2439	-2.01416	35.14709	-9.66797
0.87	-16.61682	-4.73328	-5.33752	25.78125	-8.05664
0.8705	-21.14868	-5.43823	-5.63965	17.12036	-5.43823
0.871	-17.42249	-9.46655	-1.10779	13.49487	-5.63965
0.8715	-7.15027	-2.71912	-0.40283	5.53894	-7.5531
0.872	-2.31628	1.91345	-7.5531	10.77576	-0.10071
0.8725	-7.75452	6.2439	-6.44531	1.71204	-2.71912
0.873	-3.62549	1.71204	-0.50354	-7.75452	2.21558
0.8735	-6.2439	9.86938	2.31628	-5.94177	-2.31628
0.874	-6.94885	11.68213	-0.60425	-7.15027	-4.83398
0.8745	-10.47363	11.07788	-4.33044	-9.56726	0
0.875	-0.60425	12.28638	-6.44531	-7.95593	3.7262
0.8755	-1.40991	15.00549	-5.23682	-9.16443	-1.51062
0.876	-3.7262	12.5885	2.61841	-10.47363	1.00708
0.8765	-9.76868	12.5885	-4.02832	-18.63098	-1.40991
0.877	-6.84814	13.29346	2.31628	-12.08496	3.7262
0.8775	-7.45239	14.80408	-6.3446	-17.12036	1.3092
0.878	2.71912	19.33594	-5.74036	-24.37134	0.40283
0.8785	2.92053	10.17151	1.10779	-20.74585	1.40991
0.879	1.00708	2.41699	15.71045	-14.80408	-2.21558
0.8795	0.30212	6.2439	15.00549	-16.3147	-3.92761
0.88	-3.22266	5.13611	9.76868	-10.47363	-6.94885
0.8805	-5.0354	9.36584	10.27222	-9.86938	-8.35876
0.881	-1.91345	5.53894	7.75452	-15.91187	-3.92761
0.8815	-5.43823	-3.02124	4.43115	-4.73328	-8.25806
0.882	-11.17859	-5.74036	-0.50354	-0.90637	-1.91345
0.8825	-10.57434	-2.92053	-12.99133	7.45239	9.36584
0.883	-5.23682	-4.83398	-14.40125	19.33594	6.84814
0.8835	-3.7262	-5.23682	-11.17859	28.19824	-5.13611
0.884	0.30212	-7.45239	-14.40125	27.49329	-15.40833
0.8845	-0.50354	-13.797	-16.91895	24.97559	-16.11328
0.885	-2.31628	-16.61682	-17.01965	24.06921	-3.8269
0.8855	-1.51062	-19.43665	-19.33594	22.6593	-8.05664
0.886	-13.99841	-14.30054	-15.81116	9.46655	-7.35168
0.8865	-8.96301	-15.40833	-17.01965	5.63965	-0.70496
0.887	-9.66797	-13.09204	-23.46497	2.11487	-5.84106
0.8875	-7.04956	-2.71912	-9.97009	-1.10779	-7.15027
0.888	-12.5885	-5.43823	-7.75452	-0.30212	-8.96301
0.8885	-8.35876	-6.2439	-7.04956	-2.92053	-1.40991
0.889	-7.04956	-1.81274	-10.97717	-4.73328	-7.04956
0.8895	-8.56018	-8.05664	-2.81982	-2.11487	-12.48779
0.89	-7.65381	-7.25098	1.3092	0.50354	-8.56018
0.8905	-9.56726	-7.04956	-12.5885	6.54602	-0.40283
0.891	-10.17151	-8.7616	-10.37292	11.48071	0.10071
0.8915	-7.04956	-4.53186	-6.94885	5.74036	-0.50354
0.892	0.10071	0.50354	-7.45239	-5.74036	-7.15027
0.8925	2.92053	-9.06372	-5.63965	-16.3147	-4.73328
0.893	3.7262	-9.26514	-2.5177	-8.56018	2.01416
0.8935	3.22266	-4.93469	7.65381	-0.10071	10.0708
0.894	3.8269	1.40991	10.57434	-3.92761	17.6239
0.8945	4.22974	-1.2085	13.09204	-8.66089	6.04248
0.895	4.53186	4.53186	9.76868	-5.23682	0.80566
0.8955	5.74036	-0.90637	12.28638	-5.33752	-9.97009
0.896	2.11487	6.74744	5.53894	-5.13611	-5.74036
0.8965	1.61133	10.37292	5.13611	-6.54602	-5.13611
0.897	0.50354	13.69629	13.69629	-10.87646	-0.30212
0.8975	6.14319	14.30054	13.99841	-7.5531	-0.60425
0.898	5.23682	2.81982	11.48071	-6.94885	-0.30212
0.8985	4.12903	6.54602	6.14319	-8.05664	2.31628
0.899	0.40283	8.96301	7.15027	-4.12903	-1.00708
0.8995	-8.15735	2.31628	2.92053	-5.43823	-0.30212
0.9	-2.31628	2.31628	-0.70496	-0.70496	1.3092
0.9005	-0.30212	9.06372	-3.12195	-4.83398	2.5177
0.901	-3.52478	10.27222	-4.02832	-2.11487	-2.61841
0.9015	0.80566	7.35168	1.10779	0.40283	3.92761
0.902	-6.04248	-1.10779	-4.33044	2.92053	-0.10071
0.9025	-4.33044	3.32336	-9.66797	7.35168	7.15027
0.903	-2.71912	-0.10071	-14.50195	5.13611	1.10779
0.9035	-4.63257	4.12903	-12.89062	8.05664	-0.60425
0.904	-6.3446	0.40283	-16.61682	12.08496	-4.43115
0.9045	-6.94885	-4.73328	-8.66089	12.18567	-4.83398
0.905	-6.04248	-7.45239	-16.61682	11.68213	-5.94177
0.9055	-11.38	-9.66797	-17.42249	11.38	-7.65381
0.906	-12.78992	-11.88354	-11.58142	17.12036	-4.12903
0.9065	-11.38	-10.17151	-13.49487	14.30054	-2.61841
0.907	-2.61841	-14.40125	-18.73169	16.81824	4.12903
0.9075	-4.73328	-11.2793	-13.39417	6.54602	2.61841
0.908	-5.0354	-7.25098	-6.2439	11.07788	-6.94885
0.9085	-8.7616	-11.78284	-10.17151	14.19983	-3.92761
0.909	-3.12195	-7.5531	-4.43115	7.15027	-3.12195
0.9095	-2.21558	-8.96301	-0.90637	7.65381	-1.3092
0.91	-2.01416	-1.2085	-3.62549	1.10779	0.70496
0.9105	-5.33752	-5.33752	0.60425	-0.40283	1.3092
0.911	-8.96301	-5.84106	2.01416	-0.10071	3.42407
0.9115	-2.92053	0.20142	2.21558	0.80566	2.31628
0.912	-1.71204	6.54602	0.80566	0.70496	0.70496
0.9125	-2.92053	-2.01416	3.22266	-4.73328	5.74036
0.913	-9.46655	7.35168	5.33752	-11.2793	-0.60425
0.9135	-11.78284	12.5885	5.0354	-13.59558	-9.16443
0.914	-9.56726	13.19275	10.27222	-15.00549	-6.3446
0.9145	-3.8269	10.27222	9.16443	-18.8324	-2.01416
0.915	-10.67505	9.36584	10.97717	-18.63098	-7.04956
0.9155	-10.67505	15.40833	7.5531	-20.04089	-5.13611
0.916	-10.67505	15.20691	11.98425	-16.91895	-8.56018
0.9165	-10.67505	17.72461	8.25806	-17.6239	-10.0708
0.917	-10.67505	11.48071	6.94885	-14.40125	-3.52478
0.9175	-10.67505	9.86938	11.17859	-20.74585	-1.81274
0.918	-10.67505	8.35876	11.58142	-13.99841	-11.2793
0.9185	-10.67505	4.22974	3.92761	-9.56726	-7.35168
0.919	-10.67505	5.53894	8.7616	-5.53894	-3.52478
0.9195	-10.67505	1.91345	16.81824	-8.56018	1.91345
0.92	-10.67505	-3.12195	14.19983	-10.37292	6.44531
0.9205	-10.67505	3.32336	9.66797	-3.8269	4.73328
0.921	-10.67505	-5.53894	-2.31628	-5.43823	4.93469
0.9215	-10.67505	-7.15027	-7.35168	0.90637	1.3092
0.922	-10.67505	-10.47363	-3.22266	3.32336	0.10071
0.9225	-9.76868	-13.99841	9.26514	7.25098	-0.80566
0.923	-6.94885	-8.8623	11.68213	2.81982	3.02124
0.9235	-4.73328	-13.99841	0.40283	14.70337	0.30212
0.924	-4.02832	-13.797	-3.52478	10.57434	2.71912
0.9245	-0.80566	-7.95593	-6.74744	8.96301	-3.7262
0.925	-6.44531	-17.32178	-13.89771	9.86938	0.50354
0.9255	-9.16443	-22.05505	-7.65381	23.46497	-2.61841
0.926	-1.2085	-20.1416	-0.70496	11.88354	2.61841
0.9265	5.33752	-23.36426	3.52478	10.17151	0.60425
0.927	4.53186	-18.93311	-3.7262	15.20691	2.5177
0.9275	-4.63257	-10.17151	-5.13611	15.1062	3.7262
0.928	-11.58142	-12.78992	-9.56726	9.86938	3.8269
0.9285	-8.8623	-8.56018	-8.7616	11.38	-2.11487
0.929	-5.43823	-23.06213	-7.25098	9.86938	-2.61841
0.9295	0	-11.07788	-8.96301	8.05664	-7.35168
0.93	-8.25806	-3.62549	-9.76868	1.40991	-6.74744
0.9305	-8.35876	-1.51062	-4.12903	2.11487	-9.36584
0.931	-4.33044	-2.92053	1.10779	0.90637	-6.84814
0.9315	-1.10779	1.71204	4.02832	-2.31628	-6.3446
0.932	-1.51062	10.67505	0.10071	-2.21558	-4.83398
0.9325	-11.2793	10.37292	1.61133	-5.33752	-7.95593
0.933	-9.56726	6.64673	3.92761	-12.5885	-10.67505
0.9335	-9.46655	2.81982	4.93469	-7.85522	-13.49487
0.934	-4.22974	-1.3092	19.33594	-12.18567	-7.15027
0.9345	-1.91345	5.13611	14.30054	-14.09912	-7.5531
0.935	-3.7262	4.02832	7.04956	-20.34302	-15.40833
0.9355	-6.74744	0	-3.42407	-23.16284	-10.97717
0.936	3.22266	-6.64673	-13.39417	-21.85364	-10.87646
0.9365	-1.3092	5.43823	-17.72461	-22.05505	-8.96301
0.937	-3.92761	13.69629	-19.03381	-13.89771	-7.75452
0.9375	-7.15027	26.08337	-6.94885	-15.71045	-7.95593
0.938	-3.02124	29.50745	10.37292	-8.35876	-8.96301
0.9385	-0.70496	25.37842	25.177	-13.39417	-11.78284
0.939	-6.44531	20.64514	35.54993	-9.06372	-11.78284
0.9395	-2.5177	23.76709	26.28479	-6.74744	-10.97717
0.94	-2.41699	22.6593	14.60266	-5.43823	-4.33044
0.9405	3.92761	13.797	10.87646	-4.33044	-7.85522
0.941	-10.17151	6.64673	15.40833	2.61841	-1.10779
0.9415	-10.27222	9.36584	18.02673	0.80566	-2.01416
0.942	-14.40125	11.98425	-1.00708	7.15027	0.50354
0.9425	-11.78284	15.40833	-13.59558	-0.30212	0.10071
0.943	-13.09204	11.58142	-19.33594	6.94885	0.20142
0.9435	-11.98425	5.84106	-18.93311	5.53894	0.70496
0.944	-7.35168	-8.56018	-2.01416	12.5885	6.94885
0.9445	-6.74744	-7.35168	7.35168	20.44373	7.95593
0.945	-6.04248	-8.45947	12.28638	14.30054	7.5531
0.9455	-4.53186	-12.89062	2.01416	13.59558	5.74036
0.946	-1.2085	-19.13452	-1.3092	11.17859	14.60266
0.9465	-9.56726	-17.82532	-6.74744	8.25806	25.78125
0.947	-8.25806	-16.91895	-2.5177	0.60425	35.04639
0.9475	-6.2439	-21.55151	-10.77576	-1.3092	36.75842
0.948	0.20142	-19.33594	-15.00549	5.33752	32.93152
0.9485	-6.74744	-22.45789	-10.57434	9.36584	23.06213
0.949	-5.33752	-13.29346	-4.63257	10.17151	16.51611
0.9495	-1.3092	-16.01257	1.3092	16.11328	21.14868
0.95	4.22974	-15.60974	3.62549	14.50195	13.09204
0.9505	-0.10071	-14.40125	-2.41699	19.53735	8.7616
0.951	-3.52478	-3.52478	-11.07788	25.98267	5.33752
0.9515	-3.32336	-0.80566	-15.20691	30.41382	-1.51062
0.952	-3.92761	2.31628	-9.26514	25.27771	-32.52869
0.9525	-2.21558	2.41699	-4.33044	24.57275	-30.91736
0.953	-1.51062	-3.7262	7.5531	-0.10071	-26.88904
0.9535	-1.40991	-8.96301	6.84814	-31.72302	-17.82532
0.954	2.31628	-5.13611	4.93469	-47.8363	-5.84106
0.9545	-2.71912	-13.29346	8.56018	-40.98816	-0.80566
0.955	1.91345	-7.95593	18.8324	-25.98267	-5.63965
0.9555	-0.10071	-4.63257	15.81116	-22.05505	-0.90637
0.956	2.5177	7.25098	15.81116	-18.53027	7.15027
0.9565	0.80566	11.78284	6.3446	-25.98267	7.25098
0.957	6.94885	18.53027	0.70496	-34.34143	9.16443
0.9575	-0.10071	19.83948	0	-27.79541	11.48071
0.958	-0.10071	10.87646	2.01416	-30.31311	6.54602
0.9585	0.20142	20.44373	-3.52478	-27.49329	4.53186
0.959	0.80566	19.13452	-2.61841	-22.45789	6.94885
0.9595	5.94177	23.16284	1.71204	-15.1062	-1.91345
0.96	-0.30212	16.41541	9.66797	-15.81116	-7.04956
0.9605	3.92761	10.17151	20.44373	-4.73328	-11.38
0.961	7.35168	2.81982	28.29895	5.23682	-10.37292
0.9615	7.35168	-0.40283	23.06213	14.60266	-14.60266
0.962	12.5885	-2.11487	13.797	17.22107	-26.68762
0.9625	4.93469	4.33044	2.31628	18.53027	-34.44214
0.963	7.35168	2.11487	-10.37292	16.61682	-36.35559
0.9635	-0.50354	-7.35168	-12.99133	16.21399	-40.08179
0.964	-3.8269	-7.35168	-14.80408	16.51611	-20.64514
0.9645	-2.92053	-11.38	-19.94019	28.29895	-13.39417
0.965	0.70496	-6.14319	-16.91895	35.85205	-6.2439
0.9655	-1.51062	-2.41699	-15.91187	18.02673	10.67505
0.966	-1.3092	-1.10779	-19.03381	10.37292	20.24231
0.9665	3.92761	-2.71912	-15.40833	13.39417	11.78284
0.967	-11.88354	-9.66797	-13.69629	18.63098	2.92053
0.9675	-13.99841	-9.66797	-14.80408	18.02673	2.61841
0.968	-13.59558	-10.87646	-18.93311	25.37842	0.10071
0.9685	-14.80408	-15.71045	-9.97009	19.63806	1.3092
0.969	-9.66797	-11.88354	-3.02124	17.01965	-1.3092
0.9695	-6.74744	-2.71912	-6.3446	7.85522	-7.15027
0.97	-9.66797	-3.12195	-0.70496	7.45239	-3.42407
0.9705	-9.56726	0.70496	1.81274	-2.11487	-3.52478
0.971	-8.56018	6.54602	-1.51062	8.7616	-3.8269
0.9715	-10.67505	5.74036	-7.5531	1.81274	1.71204
0.972	-13.49487	13.99841	-4.83398	-2.31628	-7.25098
0.9725	-6.74744	14.60266	-2.5177	-0.90637	0.10071
0.973	-13.99841	13.29346	-0.90637	-8.66089	-4.33044
0.9735	-12.5885	25.98267	7.25098	-9.36584	-1.10779
0.974	-11.17859	18.22815	21.14868	-8.35876	-0.60425
0.9745	-11.17859	21.24939	13.797	-15.40833	3.22266
0.975	-11.58142	18.93311	5.74036	-21.65222	6.3446
0.9755	-12.38708	19.23523	5.43823	-25.98267	12.38708
0.976	-9.76868	20.34302	0.30212	-33.13293	8.15735
0.9765	-7.85522	12.28638	4.93469	-32.12585	15.91187
0.977	-11.48071	11.07788	9.16443	-35.85205	0.30212
0.9775	-10.97717	9.46655	3.32336	-38.67188	0.70496
0.978	-7.85522	11.68213	4.63257	-31.11877	-0.30212
0.9785	-7.35168	15.91187	5.13611	-27.19116	-1.81274
0.979	-11.17859	12.5885	-0.80566	-27.99683	8.7616
0.9795	-12.28638	18.22815	0.70496	-12.78992	5.74036
0.98	-13.797	10.17151	-2.31628	11.78284	2.21558
0.9805	-12.18567	6.74744	2.31628	34.03931	-14.90479
0.981	-3.12195	3.02124	4.33044	27.09045	-28.19824
0.9815	2.81982	2.01416	6.44531	10.97717	-25.27771
0.982	6.2439	-3.22266	5.53894	9.16443	-22.15576
0.9825	6.14319	-2.71912	19.13452	13.797	-23.66638
0.983	8.56018	-16.01257	6.74744	20.64514	-20.54443
0.9835	8.96301	-12.28638	-4.73328	22.96143	-13.59558
0.984	10.0708	-8.96301	-15.91187	23.26355	-4.63257
0.9845	6.04248	-11.68213	-19.23523	18.22815	1.71204
0.985	5.13611	-7.45239	-23.76709	16.3147	1.3092
0.9855	0.80566	-11.17859	-22.86072	9.36584	1.71204
0.986	2.11487	-2.41699	-13.49487	6.54602	-5.33752
0.9865	3.8269	-8.15735	-22.76001	12.28638	-2.01416
0.987	0.10071	-22.35718	-10.47363	5.23682	1.3092
0.9875	-1.3092	-27.99683	2.01416	10.77576	2.81982
0.988	-4.73328	-16.41541	-2.5177	13.59558	3.52478
0.9885	-4.63257	-16.41541	-7.5531	14.30054	-3.62549
0.989	-4.43115	-11.48071	-11.78284	16.11328	-0.40283
0.9895	0.50354	-11.78284	-7.95593	15.91187	-3.02124
0.99	5.33752	-9.97009	1.00708	7.15027	1.40991
0.9905	0.30212	-14.40125	-0.30212	7.65381	10.57434
0.991	-4.12903	-8.35876	2.81982	4.53186	8.25806
0.9915	-1.00708	-4.02832	-8.96301	-5.63965	2.21558
0.992	0.10071	0.30212	-3.7262	-7.65381	-2.21558
0.9925	7.25098	4.93469	-3.8269	-12.99133	-0.70496
0.993	10.97717	-3.92761	2.71912	-16.71753	1.3092
0.9935	8.96301	-15.40833	13.89771	-15.1062	3.62549
0.994	4.33044	-10.57434	15.20691	-19.63806	5.43823
0.9945	7.15027	-7.75452	13.797	-13.29346	0.10071
0.995	-4.33044	-2.01416	8.35876	-16.11328	5.23682
0.9955	-4.12903	-5.94177	10.37292	-15.71045	4.63257
0.996	0.60425	-1.10779	13.29346	-13.99841	0.50354
0.9965	-7.5531	8.15735	19.03381	-18.93311	-3.7262
0.997	-3.12195	12.18567	12.38708	-17.42249	-10.67505
0.9975	-5.74036	12.18567	10.57434	-15.00549	-11.58142
0.998	-4.33044	6.54602	14.60266	-15.60974	-9.16443
0.9985	-9.97009	0.60425	12.28638	-18.93311	-7.15027
0.999	-3.92761	6.2439	12.99133	-14.40125	-6.64673
0.9995	-12.18567	10.87646	7.35168	-8.25806	-0.90637
1	-7.95593	6.04248	7.45239	-10.37292	-1.71204
1.0005	-11.58142	1.81274	1.81274	-8.35876	0.20142
1.001	-7.15027	3.02124	1.61133	-5.94177	-1.81274
1.0015	-1.71204	1.51062	8.8623	-0.50354	-2.71912
1.002	-4.63257	-0.60425	0.60425	1.71204	-7.75452
1.0025	-5.74036	-7.35168	2.01416	1.3092	-2.41699
1.003	-4.43115	-8.7616	0.30212	2.81982	0.70496
1.0035	-3.12195	-12.08496	-11.58142	12.38708	2.92053
1.004	-4.73328	-15.30762	-13.59558	11.88354	10.77576
1.0045	-6.04248	-15.40833	-11.68213	13.29346	6.74744
1.005	-3.8269	-13.99841	-13.29346	10.57434	15.00549
1.0055	-0.90637	-18.42957	-17.52319	9.76868	14.19983
1.006	-2.11487	-22.35718	-25.68054	8.05664	12.08496
1.0065	-1.00708	-21.85364	-30.91736	3.62549	9.86938
1.007	-5.74036	-23.26355	-27.89612	0.80566	16.91895
1.0075	-6.84814	-24.47205	-18.73169	-1.2085	20.04089
1.008	2.61841	-24.67346	-14.80408	-8.25806	14.40125
1.0085	2.71912	-27.6947	-7.5531	-18.32886	8.56018
1.009	4.53186	-21.24939	-6.64673	-11.98425	14.30054
1.0095	-0.30212	-18.42957	-10.27222	0	19.43665
1.01	-0.30212	-17.42249	-9.56726	8.96301	16.81824
1.0105	-2.61841	-6.54602	-10.77576	18.63098	9.97009
1.011	-8.56018	-7.95593	-9.46655	24.87488	-4.12903
1.0115	-9.36584	-3.52478	1.2085	18.02673	-12.78992
1.012	-14.90479	-6.44531	2.11487	7.95593	-12.99133
1.0125	-15.00549	-5.63965	3.8269	8.7616	-14.30054
1.013	-9.56726	2.41699	-3.7262	0.70496	-13.797
1.0135	-12.78992	3.92761	-1.40991	2.11487	-15.40833
1.014	-5.43823	7.45239	2.92053	-5.84106	-9.26514
1.0145	-7.15027	6.84814	6.14319	-9.76868	-5.74036
1.015	-2.21558	10.87646	9.66797	-16.01257	-8.05664
1.0155	-3.42407	6.94885	-2.71912	-16.81824	-1.51062
1.016	-3.8269	12.99133	9.86938	-14.30054	-5.43823
1.0165	-4.93469	13.19275	9.36584	-14.30054	-11.88354
1.017	-4.93469	16.61682	19.63806	-14.30054	-12.18567
1.0175	-2.61841	13.69629	12.08496	-15.60974	-10.87646
1.018	-3.12195	17.82532	9.66797	-11.98425	-7.35168
1.0185	3.62549	12.38708	8.56018	-14.19983	-5.74036
1.019	-3.02124	14.50195	5.53894	-12.48779	-8.35876
1.0195	-5.63965	11.38	-0.90637	-12.89062	-5.13611
1.02	-7.95593	7.35168	-1.51062	-4.63257	-1.40991
1.0205	-0.30212	8.35876	-1.91345	-1.3092	4.93469
1.021	-2.21558	2.31628	-0.90637	-6.74744	-4.33044
1.0215	2.11487	-1.91345	-8.35876	0.10071	1.3092
1.022	-2.41699	-2.5177	-8.25806	6.94885	7.04956
1.0225	-9.46655	-3.12195	-9.06372	9.66797	8.25806
1.023	-13.39417	-7.75452	-4.43115	12.08496	5.53894
1.0235	-11.17859	-16.61682	-7.65381	17.82532	16.3147
1.024	-10.97717	-12.68921	-9.16443	12.99133	15.40833
1.0245	-12.89062	-12.18567	-10.37292	12.48779	13.49487
1.025	-8.35876	-13.19275	-9.06372	5.23682	10.37292
1.0255	-3.42407	-16.71753	-22.35718	10.0708	7.75452
1.026	-4.33044	-18.42957	-14.60266	16.41541	1.10779
1.0265	-4.33044	-15.20691	-9.97009	10.0708	5.23682
1.027	-6.3446	-15.1062	-14.30054	14.60266	4.33044
1.0275	-6.3446	-10.57434	-11.78284	10.17151	-6.04248
1.028	-6.3446	-12.18567	-9.06372	10.77576	-0.80566
1.0285	-6.3446	-18.53027	-7.95593	7.5531	2.31628
1.029	-6.3446	-11.48071	-3.7262	2.31628	4.22974
1.0295	-6.3446	-7.15027	-6.64673	-6.54602	3.42407
1.03	-6.3446	-11.17859	2.61841	-11.98425	-2.5177
1.0305	-6.3446	-6.04248	-5.84106	-8.56018	1.61133
1.031	-6.3446	-6.84814	1.91345	-8.56018	1.00708
1.0315	-6.3446	-5.0354	7.15027	-11.07788	-6.3446
1.032	-6.3446	2.21558	3.32336	-9.56726	-12.99133
1.0325	-6.3446	7.35168	-0.10071	0.30212	-10.87646
1.033	-6.3446	3.52478	-0.10071	-2.92053	-12.78992
1.0335	-6.3446	-1.40991	0.50354	-10.57434	-4.43115
1.034	-6.3446	-0.50354	2.01416	-17.52319	-4.22974
1.0345	-6.3446	-1.2085	2.92053	-11.88354	-11.58142
1.035	-6.3446	8.8623	8.35876	-10.67505	-17.42249
1.0355	-6.3446	6.14319	1.71204	-22.15576	-9.97009
1.036	-6.3446	10.0708	5.53894	-16.3147	-2.81982
1.0365	-6.3446	10.77576	4.12903	-9.56726	9.56726
1.037	-6.3446	15.81116	5.33752	-5.74036	11.68213
1.0375	-6.3446	19.63806	-1.91345	-7.85522	-0.10071
1.038	-6.3446	19.03381	3.02124	-8.45947	-10.37292
1.0385	-6.3446	7.75452	0.20142	-5.74036	-6.64673
1.039	-6.3446	-1.51062	8.35876	-3.7262	-10.57434
1.0395	-6.3446	2.5177	14.60266	-2.41699	-9.06372
1.04	-6.3446	3.62549	14.60266	-6.3446	-16.41541
1.0405	-6.3446	14.19983	9.06372	-0.50354	-20.64514
1.041	-6.3446	13.09204	3.7262	-3.42407	-29.91028
1.0415	2.61841	4.83398	-7.15027	6.54602	-23.96851
1.042	-0.80566	2.31628	-13.59558	5.43823	-22.35718
1.0425	7.35168	-10.57434	-12.38708	1.81274	-14.30054
1.043	0.10071	-12.08496	-12.28638	9.36584	-6.3446
1.0435	-3.8269	-12.99133	-7.45239	13.59558	-3.02124
1.044	-2.11487	-1.2085	-0.50354	8.45947	9.56726
1.0445	-10.27222	6.3446	-12.99133	12.08496	22.15576
1.045	-5.13611	2.31628	-23.06213	15.50903	21.55151
1.0455	-5.63965	-6.74744	-34.94568	18.22815	18.42957
1.046	-13.19275	-17.01965	-27.89612	15.00549	18.02673
1.0465	-11.58142	-26.3855	-18.02673	11.98425	9.06372
1.047	-7.85522	-25.78125	-8.05664	18.32886	8.35876
1.0475	-12.48779	-21.65222	5.53894	17.01965	8.96301
1.048	-10.0708	-18.8324	-6.54602	11.58142	14.09912
1.0485	-12.18567	-14.80408	-11.07788	13.19275	7.5531
1.049	-12.5885	-10.37292	-28.70178	7.25098	4.93469
1.0495	-10.97717	-7.65381	-26.98975	3.02124	4.73328
1.05	-7.04956	-5.74036	-11.17859	1.3092	1.00708
1.0505	-3.42407	0	6.04248	0.40283	3.32336
1.051	-11.17859	-3.02124	19.43665	-1.71204	8.56018
1.0515	-13.39417	-10.37292	16.91895	0.90637	2.31628
1.052	-14.19983	-3.92761	13.19275	-2.71912	6.54602
1.0525	-11.88354	-2.5177	10.17151	-4.73328	0.20142
1.053	-6.74744	-4.02832	7.45239	-10.77576	4.53186
1.0535	-1.91345	-2.01416	11.68213	-14.80408	4.33044
1.054	-2.31628	8.96301	4.22974	-10.97717	-4.02832
1.0545	-7.25098	5.84106	-3.62549	-18.42957	0.80566
1.055	-4.83398	8.7616	-3.12195	-16.51611	-3.92761
1.0555	-4.83398	2.81982	-2.61841	-19.43665	-2.01416
1.056	-8.66089	-0.50354	12.18567	-18.53027	4.93469
1.0565	-4.53186	3.52478	28.60107	-11.68213	2.41699
1.057	0.90637	9.76868	37.7655	-0.90637	-2.21558
1.0575	-7.15027	16.21399	24.06921	-10.37292	-4.12903
1.058	-9.36584	15.50903	20.74585	-5.53894	1.2085
1.0585	-2.5177	12.5885	17.72461	-2.92053	-4.53186
1.059	-0.60425	8.35876	12.28638	6.14319	0.70496
1.0595	-0.10071	6.94885	-5.74036	-1.00708	4.33044
1.06	7.85522	-0.10071	-0.90637	5.13611	11.98425
1.0605	4.63257	-0.70496	-5.74036	2.92053	9.76868
1.061	0.30212	2.92053	-7.04956	2.41699	7.75452
1.0615	3.22266	5.53894	-11.17859	12.38708	0.10071
1.062	2.5177	7.65381	-16.11328	12.5885	-10.0708
1.0625	7.5531	0.30212	-19.03381	16.61682	-19.83948
1.063	3.7262	-0.10071	-16.81824	11.98425	-17.01965
1.0635	1.00708	-3.7262	-3.7262	-3.02124	7.15027
1.064	-5.43823	-7.35168	6.44531	-29.91028	24.57275
1.0645	-4.33044	-7.15027	7.04956	-41.39099	35.54993
1.065	-5.63965	-0.50354	-0.70496	-31.01807	35.04639
1.0655	-6.44531	-3.52478	-4.12903	-20.34302	26.78833
1.066	-10.97717	-2.5177	-17.72461	-14.19983	23.26355
1.0665	-8.35876	0.50354	-21.55151	-7.04956	24.37134
1.067	-10.67505	1.2085	-12.38708	-5.33752	19.43665
1.0675	-4.83398	4.53186	-12.78992	-2.81982	11.17859
1.068	-8.25806	3.8269	-6.74744	1.61133	-10.67505
1.0685	-11.38	2.92053	-7.04956	13.29346	-26.3855
1.069	-10.97717	-4.33044	-2.61841	24.77417	-28.70178
1.0695	-10.17151	-4.53186	-4.53186	23.76709	-22.6593
1.07	-1.71204	-16.01257	-3.62549	13.39417	-20.74585
1.0705	2.61841	-13.49487	-9.46655	0.80566	-11.38
1.071	6.3446	-14.80408	-3.92761	4.83398	-20.1416
1.0715	6.94885	-16.41541	-9.36584	9.36584	-17.42249
1.072	12.38708	-13.39417	-5.94177	6.74744	-18.63098
1.0725	3.22266	-11.98425	-10.27222	-1.81274	-14.80408
1.073	5.53894	-6.44531	-3.12195	-4.63257	-2.31628
1.0735	-3.42407	-0.60425	17.01965	-9.06372	-3.62549
1.074	-0.90637	-2.21558	11.38	-12.68921	5.0354
1.0745	6.84814	-5.74036	8.8623	-23.26355	-1.3092
1.075	2.71912	-5.23682	9.66797	-22.55859	-2.21558
1.0755	4.12903	-7.5531	14.80408	-22.15576	-2.11487
1.076	1.10779	-2.11487	5.84106	-18.22815	-5.23682
1.0765	1.10779	-0.50354	1.10779	-19.03381	-1.81274
1.077	1.10779	3.22266	4.53186	-26.28479	-0.50354
1.0775	1.10779	7.25098	10.27222	-21.65222	-4.93469
1.078	1.10779	9.76868	7.95593	-20.84656	-8.66089
1.0785	1.10779	6.94885	9.76868	-18.8324	-8.96301
1.079	1.10779	0.70496	11.17859	-13.59558	-4.63257
1.0795	1.10779	-5.33752	12.08496	-2.5177	-12.89062
1.08	1.10779	-7.35168	7.35168	-0.10071	-10.57434
1.0805	1.10779	-5.43823	-0.10071	-0.20142	-12.99133
1.081	1.10779	1.10779	-1.71204	4.02832	-13.59558
1.0815	1.10779	-4.33044	-0.10071	2.21558	-11.68213
1.082	1.10779	0.70496	-8.96301	5.0354	-0.80566
1.0825	1.10779	-10.57434	3.52478	3.32336	-0.10071
1.083	1.10779	-7.75452	8.15735	-0.70496	10.0708
1.0835	-9.36584	-0.80566	-0.90637	-0.90637	13.59558
1.084	-11.48071	-7.04956	-7.15027	5.23682	17.6239
1.0845	-8.96301	-15.20691	-15.00549	2.11487	16.71753
1.085	-4.83398	-8.25806	-18.73169	9.06372	14.19983
1.0855	-9.06372	-4.53186	-19.94019	6.14319	12.99133
1.086	-8.66089	-14.30054	-17.01965	3.92761	7.65381
1.0865	-9.56726	-12.78992	-13.09204	10.37292	10.0708
1.087	-7.15027	-27.19116	-15.30762	15.20691	12.08496
1.0875	-8.56018	-26.88904	-15.60974	15.91187	6.14319
1.088	-11.48071	-22.25647	-11.07788	22.35718	2.71912
1.0885	-10.67505	-13.19275	-1.61133	29.50745	-2.92053
1.089	-12.99133	-6.44531	-10.47363	21.45081	-12.28638
1.0895	1.00708	-3.8269	-6.44531	4.53186	-17.22107
1.09	2.71912	-8.05664	-11.58142	-1.2085	-13.29346
1.0905	-5.74036	-1.3092	-5.13611	-3.52478	-13.29346
1.091	-9.16443	-4.33044	-7.15027	-7.95593	-13.29346
1.0915	-8.15735	-0.40283	-4.33044	-5.33752	-13.29346
1.092	-4.53186	4.33044	-3.92761	-12.5885	-13.29346
1.0925	-6.84814	2.81982	-1.51062	-7.45239	-13.29346
1.093	-4.73328	2.81982	8.25806	-2.5177	-13.29346
1.0935	-5.74036	5.74036	-0.10071	1.71204	-13.29346
1.094	-6.2439	6.44531	-3.02124	4.93469	-13.29346
1.0945	0.70496	7.5531	-1.3092	5.23682	-13.29346
1.095	-2.71912	8.96301	4.12903	-5.13611	-13.29346
1.0955	4.12903	2.92053	10.17151	-5.74036	-13.29346
1.096	-0.80566	5.33752	8.15735	-13.19275	-13.29346
1.0965	-6.44531	9.97009	8.56018	-14.40125	-13.29346
1.097	-5.33752	6.74744	8.7616	-13.69629	-13.29346
1.0975	-3.42407	19.63806	7.75452	-11.17859	-18.02673
1.098	-5.74036	14.30054	4.12903	-19.63806	-11.07788
1.0985	-5.63965	4.83398	7.45239	-19.23523	-12.08496
1.099	2.31628	-0.70496	6.94885	-12.28638	-4.43115
1.0995	-2.21558	-5.33752	10.87646	-10.97717	-3.52478
1.1	1.71204	-8.66089	6.94885	-4.53186	1.00708
1.1005	-3.12195	-0.10071	-1.91345	-3.12195	0.80566
1.101	-7.35168	-1.81274	1.51062	-1.10779	0.20142
1.1015	-5.74036	-4.73328	-0.20142	-2.31628	6.44531
1.102	-10.37292	-1.91345	-1.00708	-1.61133	9.06372
1.1025	-10.17151	-8.05664	-0.90637	0.50354	9.16443
1.103	-9.56726	-10.77576	-4.02832	7.45239	6.04248
1.1035	-4.73328	-23.46497	-13.797	9.56726	5.94177
1.104	0.90637	-24.47205	-18.02673	14.30054	5.63965
1.1045	-2.11487	-20.1416	-12.99133	7.35168	0.50354
1.105	8.35876	-21.65222	-22.86072	18.32886	-0.30212
1.1055	15.1062	-14.60266	-19.03381	16.11328	1.91345
1.106	11.98425	-20.1416	-20.34302	14.90479	0.50354
1.1065	6.64673	-21.14868	-14.19983	11.98425	7.75452
1.107	-0.10071	-26.98975	-1.40991	12.38708	5.63965
1.1075	2.92053	-20.64514	-1.40991	15.71045	1.81274
1.108	4.22974	-22.15576	-3.92761	17.12036	-1.3092
1.1085	3.02124	-17.6239	-5.33752	14.60266	2.11487
1.109	4.33044	-15.50903	-5.23682	15.1062	8.25806
1.1095	-6.2439	-17.42249	-7.35168	11.2793	4.33044
1.11	-3.22266	-11.58142	-5.13611	4.02832	-3.62549
1.1105	-4.12903	-7.35168	-0.10071	4.93469	0.20142
1.111	-7.85522	0.70496	-1.00708	1.51062	-0.50354
1.1115	-7.15027	1.91345	-4.33044	-2.92053	-1.10779
1.112	-3.42407	7.75452	-0.70496	-7.95593	-5.23682
1.1125	-4.22974	1.91345	2.61841	-10.97717	-4.63257
1.113	0.40283	9.06372	-0.80566	-10.17151	-8.35876
1.1135	0.20142	8.8623	3.62549	-12.99133	-10.77576
1.114	5.23682	8.05664	12.5885	-18.22815	-18.02673
1.1145	2.5177	2.31628	3.62549	-13.89771	-9.46655
1.115	5.23682	7.95593	-1.91345	-12.78992	-10.17151
1.1155	-0.50354	7.15027	5.23682	-9.56726	0.60425
1.116	-5.13611	2.31628	12.99133	-15.50903	-5.84106
1.1165	-5.74036	-2.31628	11.98425	-19.23523	-3.12195
1.117	-6.44531	5.33752	9.56726	-10.27222	-1.3092
1.1175	-10.57434	16.41541	11.68213	-15.20691	-4.43115
1.118	-12.48779	18.42957	6.84814	-15.91187	2.5177
1.1185	-6.2439	21.04797	0.50354	-16.01257	5.13611
1.119	-5.53894	19.13452	1.10779	-14.70337	7.15027
1.1195	-7.35168	11.88354	-3.22266	-5.23682	7.35168
1.12	-4.53186	12.5885	-1.91345	-9.66797	-0.60425
1.1205	1.10779	6.74744	3.62549	-9.06372	3.92761
1.121	7.15027	12.38708	1.00708	-5.53894	-0.90637
1.1215	10.97717	2.92053	-6.14319	-2.92053	-10.97717
1.122	3.32336	-7.35168	-1.91345	-0.90637	-17.82532
1.1225	1.71204	-9.66797	-0.20142	1.3092	-24.87488
1.123	0.90637	-10.17151	-5.53894	15.20691	-16.41541
1.1235	2.5177	-12.99133	-10.0708	15.40833	-10.77576
1.124	-2.92053	-9.16443	-10.47363	12.99133	-6.04248
1.1245	0.30212	-10.37292	-17.6239	9.66797	1.71204
1.125	-4.43115	-14.60266	-15.60974	12.18567	11.38
1.1255	-7.45239	-14.30054	-15.71045	20.1416	16.3147
1.126	-10.47363	-10.37292	-16.3147	23.46497	30.41382
1.1265	-8.45947	-18.42957	-22.76001	21.55151	36.15417
1.127	-13.29346	-17.22107	-22.05505	19.13452	29.91028
1.1275	-6.3446	-19.43665	-15.60974	21.04797	14.60266
1.128	-3.8269	-23.16284	-16.51611	18.42957	3.92761
1.1285	3.32336	-21.85364	-25.07629	13.99841	2.5177
1.129	-2.61841	-29.60815	-27.29187	11.98425	3.7262
1.1295	3.7262	-15.20691	-29.50745	13.39417	9.36584
1.13	-8.56018	-21.14868	-24.27063	8.15735	14.09912
1.1305	-5.13611	-14.80408	1.2085	-3.32336	9.97009
1.131	-0.90637	-9.76868	16.21399	-10.37292	5.23682
1.1315	-2.92053	-7.65381	23.06213	-18.42957	8.15735
1.132	-7.35168	-9.36584	10.27222	-22.86072	12.99133
1.1325	-5.94177	-11.2793	0.80566	-22.25647	15.00549
1.133	-7.35168	-9.36584	0.50354	-25.57983	14.30054
1.1335	-15.60974	-12.38708	2.61841	-20.24231	16.3147
1.134	-13.59558	4.63257	8.25806	-21.24939	17.82532
1.1345	-10.57434	0.70496	4.93469	-19.23523	12.18567
1.135	-11.78284	3.52478	-2.5177	-18.8324	7.35168
1.1355	-8.05664	5.53894	-5.94177	-15.1062	13.99841
1.136	-11.38	5.74036	-0.30212	-18.12744	6.54602
1.1365	-7.45239	4.43115	-2.5177	-13.49487	7.15027
1.137	-0.50354	2.01416	5.33752	-13.19275	-0.60425
1.1375	2.01416	4.63257	11.48071	-2.71912	-6.3446
1.138	7.45239	5.94177	11.48071	-0.40283	-12.38708
1.1385	11.58142	11.38	13.99841	-3.62549	-8.45947
1.139	3.52478	11.17859	8.25806	-5.13611	-12.08496
1.1395	3.02124	9.66797	13.49487	-5.33752	-9.56726
1.14	-3.7262	6.64673	6.94885	-2.5177	-5.94177
1.1405	-4.33044	10.27222	3.32336	1.51062	-2.41699
1.141	-5.74036	0.50354	3.8269	1.71204	0.80566
1.1415	-10.57434	-2.5177	0.20142	11.17859	-1.2085
1.142	-11.07788	-2.21558	-2.5177	6.94885	-2.71912
1.1425	-14.19983	-3.52478	-0.90637	5.84106	1.00708
1.143	-11.2793	-1.61133	-10.57434	15.91187	-1.10779
1.1435	-12.78992	-5.94177	-10.97717	14.80408	-5.33752
1.144	-9.26514	-8.96301	-14.50195	16.51611	-2.31628
1.1445	-15.60974	-3.52478	-5.13611	11.07788	-6.14319
1.145	-22.05505	-6.84814	-14.19983	15.81116	-2.71912
1.1455	-25.27771	-2.71912	-14.90479	15.20691	2.11487
1.146	-22.76001	-3.7262	-11.68213	14.50195	-0.50354
1.1465	-23.36426	-3.42407	-10.17151	14.30054	-3.42407
1.147	-19.33594	-5.94177	-9.16443	19.03381	-1.2085
1.1475	-14.60266	-8.35876	-10.17151	11.78284	-2.81982
1.148	-11.98425	-12.68921	-9.66797	13.99841	-0.90637
1.1485	-13.49487	-13.99841	-4.63257	13.39417	-1.51062
1.149	-13.797	-14.90479	-3.02124	13.09204	-0.80566
1.1495	-12.28638	-9.66797	4.53186	13.39417	-4.33044
1.15	-10.0708	-10.17151	7.45239	7.15027	-5.33752
1.1505	-6.74744	-11.17859	8.35876	0.40283	-9.16443
1.151	-0.90637	-8.96301	6.14319	-2.11487	-14.30054
1.1515	7.15027	-10.57434	8.8623	2.11487	-7.25098
1.152	4.53186	-9.46655	9.97009	-8.96301	-10.37292
1.1525	8.35876	-4.73328	12.5885	-16.61682	-4.33044
1.153	-1.40991	-2.5177	-2.11487	-17.22107	-7.85522
1.1535	-1.40991	-0.10071	-14.80408	-16.11328	-7.85522
1.154	-1.40991	0.30212	-12.28638	-15.20691	-7.85522
1.1545	-1.40991	6.54602	-21.85364	-16.81824	-7.85522
1.155	-1.40991	7.95593	-3.92761	-14.80408	-7.85522
1.1555	-1.40991	10.0708	5.84106	-12.18567	-7.85522
1.156	-1.40991	11.58142	7.35168	-11.78284	-7.85522
1.1565	-1.40991	5.84106	0.60425	-15.50903	-7.85522
1.157	-1.40991	5.33752	1.3092	-9.36584	-7.85522
1.1575	-1.40991	8.05664	8.7616	-13.59558	-7.85522
1.158	-1.40991	13.99841	25.07629	-13.59558	-7.85522
1.1585	-1.40991	20.54443	20.64514	-15.71045	-7.85522
1.159	-1.40991	15.40833	11.78284	-10.57434	-7.85522
1.1595	-1.40991	7.75452	3.8269	-12.78992	-7.85522
1.16	-1.40991	1.61133	-2.21558	-6.04248	-7.85522
1.1605	-7.35168	-2.41699	0.10071	-4.93469	4.63257
1.161	-1.71204	-3.62549	-0.10071	1.00708	0.60425
1.1615	-1.40991	-1.00708	7.04956	-2.11487	-1.00708
1.162	-5.0354	-3.92761	5.13611	-0.10071	0.70496
1.1625	-0.30212	-8.05664	-0.80566	-3.12195	-2.61841
1.163	-4.63257	-6.74744	-13.19275	2.01416	-0.20142
1.1635	-0.90637	-13.797	-10.77576	9.16443	-3.32336
1.164	-7.5531	-13.49487	-3.52478	15.60974	2.71912
1.1645	-7.25098	-10.17151	-6.94885	11.17859	2.81982
1.165	-9.56726	-9.06372	-15.30762	12.89062	-2.31628
1.1655	-10.77576	-9.46655	-14.30054	13.69629	2.21558
1.166	-5.63965	-8.45947	-14.90479	16.11328	0.70496
1.1665	-2.92053	-7.95593	-15.91187	19.94019	-0.60425
1.167	-5.74036	-11.98425	-19.83948	9.46655	2.11487
1.1675	-8.45947	-9.36584	-17.72461	15.81116	-3.8269
1.168	-7.95593	-16.41541	-13.797	12.78992	-0.50354
1.1685	-1.10779	-21.75293	-6.3446	11.58142	0.10071
1.169	-1.61133	-13.99841	-10.67505	12.18567	6.94885
1.1695	-4.12903	-8.35876	-14.60266	14.19983	-0.60425
1.17	-10.97717	-10.87646	-6.94885	9.16443	-1.91345
1.1705	-9.56726	-5.84106	-1.51062	0.60425	-0.20142
1.171	-8.35876	-2.41699	-3.92761	-0.70496	-0.70496
1.1715	-5.84106	3.8269	-2.92053	-8.05664	-2.81982
1.172	-7.5531	5.63965	-3.92761	-17.6239	-5.13611
1.1725	-5.13611	11.78284	-15.91187	-13.99841	0.30212
1.173	-1.91345	6.2439	-2.11487	-25.98267	-7.75452
1.1735	-10.0708	7.65381	6.14319	-21.04797	-1.61133
1.174	-4.53186	6.84814	3.8269	-23.26355	-12.5885
1.1745	-4.93469	12.28638	8.7616	-24.87488	-3.62549
1.175	-6.3446	14.70337	10.87646	-25.37842	-7.45239
1.1755	2.21558	11.98425	5.74036	-20.64514	-4.83398
1.176	-0.20142	9.36584	1.3092	-2.31628	-7.65381
1.1765	-2.5177	10.77576	8.56018	-3.22266	-2.11487
1.177	2.21558	17.82532	10.27222	-1.71204	4.02832
1.1775	2.01416	17.22107	6.54602	-4.02832	-0.10071
1.178	1.71204	23.06213	0	-8.15735	-3.12195
1.1785	1.00708	22.76001	-2.31628	-2.5177	-11.98425
1.179	2.92053	8.05664	-6.14319	-7.35168	-8.15735
1.1795	3.12195	8.96301	-8.56018	-8.25806	-11.78284
1.18	-0.20142	1.00708	-1.3092	0	-4.02832
1.1805	-4.33044	2.81982	11.88354	3.02124	-10.67505
1.181	-1.71204	0.20142	12.89062	9.76868	-7.5531
1.1815	-4.12903	-0.50354	5.94177	2.11487	-9.97009
1.182	-5.53894	-5.0354	-2.11487	4.73328	-4.63257
1.1825	-2.71912	-2.21558	-8.56018	-0.30212	-8.05664
1.183	1.10779	-3.62549	-10.57434	0.60425	-6.14319
1.1835	-0.20142	-3.12195	-10.77576	0.10071	-6.14319
1.184	-4.12903	-0.20142	-12.99133	6.94885	-2.61841
1.1845	-12.78992	-0.80566	-16.11328	14.60266	0.90637
1.185	-4.73328	-0.90637	-20.24231	25.88196	-3.22266
