chiusura_max.c3d



Time(s):	Emg_1(uV):	Emg_2(uV):	Emg_3(uV):	Emg_4(uV):	Emg_5(uV):
0	-1.91345	-1.3092	-1.91345	3.7262	-0.50354
0.0005	-3.8269	-3.7262	2.5177	-3.52478	1.91345
0.001	-2.71912	-5.43823	5.0354	-5.0354	-2.11487
0.0015	-8.8623	0.20142	1.61133	-6.14319	2.21558
0.002	-3.62549	-3.62549	-6.14319	-14.90479	-1.40991
0.0025	-4.33044	1.81274	-4.73328	-4.33044	-10.47363
0.003	-6.44531	1.71204	-1.00708	3.62549	-10.87646
0.0035	-3.8269	-1.40991	-7.25098	7.95593	-0.10071
0.004	-2.92053	2.01416	-3.02124	1.61133	-2.41699
0.0045	-5.33752	6.64673	-6.54602	-1.40991	0.50354
0.005	-2.31628	-0.80566	2.01416	-0.10071	1.40991
0.0055	-5.74036	-1.40991	0	2.11487	-0.10071
0.006	-1.2085	-3.92761	-4.93469	-0.10071	-2.21558
0.0065	1.40991	-6.74744	-4.73328	-0.70496	-2.92053
0.007	-6.94885	-7.25098	-5.53894	-1.40991	-2.21558
0.0075	-3.52478	-7.5531	-1.3092	-2.5177	5.94177
0.008	0.80566	-5.84106	3.32336	-0.60425	4.22974
0.0085	-4.53186	1.91345	1.71204	4.43115	-0.30212
0.009	-4.53186	2.01416	0.50354	5.0354	-1.91345
0.0095	-4.33044	-9.56726	-1.3092	-0.90637	-5.23682
0.01	-1.81274	-2.61841	-6.3446	-10.57434	-2.81982
0.0105	-1.51062	-2.31628	-1.3092	-12.5885	-3.52478
0.011	-7.15027	-1.3092	-0.10071	-11.2793	-2.21558
0.0115	-1.71204	-2.31628	0.30212	-9.56726	-5.43823
0.012	-4.83398	-5.53894	-1.81274	-9.86938	-3.32336
0.0125	-4.02832	-4.43115	-7.45239	-17.6239	1.00708
0.013	-6.44531	-0.80566	0.50354	-4.73328	-14.40125
0.0135	-8.05664	0.50354	7.5531	5.63965	-12.38708
0.014	-5.33752	3.22266	3.02124	-0.40283	-2.31628
0.0145	1.51062	-6.14319	-8.7616	-0.90637	8.7616
0.015	-0.50354	-9.06372	-12.38708	0.60425	5.63965
0.0155	-9.16443	-5.94177	-8.56018	6.14319	1.71204
0.016	-12.78992	-1.00708	-0.80566	7.75452	-1.51062
0.0165	-7.85522	1.91345	-0.60425	-1.71204	-3.62549
0.017	-5.53894	-5.33752	-2.01416	-3.62549	-2.41699
0.0175	-4.33044	-13.99841	0.50354	0	-3.12195
0.018	4.12903	-6.74744	-0.20142	1.61133	-0.10071
0.0185	-0.90637	-8.7616	-0.40283	-10.37292	0.50354
0.019	-2.31628	-9.76868	-0.10071	-4.73328	-1.51062
0.0195	0.60425	-2.31628	2.41699	8.66089	-9.66797
0.02	-1.71204	1.61133	2.41699	6.54602	-1.91345
0.0205	-0.50354	-7.04956	-2.01416	-4.83398	-1.81274
0.021	-4.73328	-9.56726	-2.71912	-10.87646	5.13611
0.0215	-0.10071	-10.0708	-4.73328	-20.44373	3.7262
0.022	-9.56726	-4.12903	-2.11487	-8.25806	-1.81274
0.0225	-8.15735	-1.10779	1.51062	2.92053	-5.53894
0.023	-10.17151	0.50354	7.35168	-0.80566	0.50354
0.0235	2.11487	-0.70496	3.92761	5.33752	3.7262
0.024	-0.30212	-3.8269	-5.84106	24.47205	-1.00708
0.0245	-3.62549	-7.04956	-2.71912	18.63098	10.37292
0.025	-0.90637	-8.35876	-6.94885	7.04956	5.33752
0.0255	-3.52478	-4.53186	-2.5177	0.70496	-0.50354
0.026	-4.93469	-10.77576	4.53186	-3.12195	6.44531
0.0265	-6.94885	-6.3446	3.52478	-2.31628	-0.90637
0.027	-1.51062	-1.00708	3.92761	-0.70496	-4.12903
0.0275	-4.33044	3.02124	-2.11487	6.84814	-6.94885
0.028	2.31628	5.33752	-2.21558	1.3092	0.50354
0.0285	-2.31628	2.41699	-1.40991	-1.10779	-4.33044
0.029	-1.3092	-0.30212	5.23682	3.22266	-7.5531
0.0295	-4.33044	-4.22974	-2.01416	2.31628	-6.94885
0.03	-1.81274	-4.53186	3.42407	2.61841	-9.26514
0.0305	-7.15027	-1.40991	-5.53894	0.10071	-5.94177
0.031	-2.71912	-4.53186	-5.23682	2.31628	-8.05664
0.0315	-2.81982	-4.53186	1.3092	-0.40283	-1.71204
0.032	-5.94177	-4.12903	-1.51062	1.3092	0.70496
0.0325	0.20142	-4.33044	-4.12903	3.42407	4.12903
0.033	-8.35876	-7.85522	-15.71045	1.10779	4.53186
0.0335	-3.92761	-4.53186	-10.77576	1.71204	14.19983
0.034	-7.35168	-2.5177	-3.92761	-5.74036	4.53186
0.0345	-4.53186	-0.40283	-6.74744	-12.89062	0.30212
0.035	-5.13611	1.3092	-5.94177	-16.11328	2.31628
0.0355	-6.74744	-1.2085	-1.81274	-8.25806	-9.76868
0.036	-6.84814	0.10071	0.40283	1.61133	-5.43823
0.0365	0.40283	-1.51062	5.74036	4.33044	0.30212
0.037	-0.90637	2.92053	-0.60425	-0.20142	-0.10071
0.0375	-5.63965	-0.30212	-8.96301	1.81274	-4.93469
0.038	-12.48779	-3.22266	-2.5177	-1.61133	-7.5531
0.0385	-2.21558	-2.5177	0.50354	-16.41541	9.66797
0.039	1.40991	-4.12903	-7.04956	-19.53735	6.74744
0.0395	-6.04248	-8.8623	-12.38708	-6.14319	2.61841
0.04	-4.63257	-9.66797	-7.35168	11.98425	-2.21558
0.0405	-7.95593	-7.35168	-3.12195	25.47913	-2.41699
0.041	-9.06372	-4.33044	3.7262	14.90479	-4.53186
0.0415	-6.94885	2.5177	13.09204	2.71912	-0.50354
0.042	-5.63965	1.3092	15.81116	-2.01416	1.91345
0.0425	5.74036	-0.50354	0.40283	-1.2085	-3.52478
0.043	3.02124	-4.73328	-6.54602	-5.53894	6.2439
0.0435	12.18567	-11.17859	-9.16443	-0.80566	2.31628
0.044	4.93469	-5.84106	-9.46655	-4.53186	8.56018
0.0445	1.71204	0.30212	-8.96301	-8.66089	3.62549
0.045	-5.53894	4.53186	1.3092	-14.80408	3.22266
0.0455	-7.85522	2.41699	1.3092	-7.15027	-11.88354
0.046	-9.76868	8.56018	-1.3092	2.92053	-12.48779
0.0465	-8.8623	-3.62549	-4.63257	2.81982	1.51062
0.047	-5.0354	-1.61133	3.32336	-1.40991	2.61841
0.0475	-12.18567	-3.7262	8.7616	-4.22974	-6.14319
0.048	-4.12903	3.52478	4.12903	-5.84106	-8.66089
0.0485	-2.11487	-7.25098	3.22266	-3.92761	-1.71204
0.049	0.90637	-6.74744	0.20142	2.71912	-7.15027
0.0495	-0.80566	-7.35168	-1.51062	3.8269	-2.5177
0.05	-11.2793	-2.81982	-3.7262	3.52478	0.90637
0.0505	-11.48071	-10.17151	1.00708	-10.27222	1.91345
0.051	-10.0708	2.5177	2.11487	-12.89062	-3.32336
0.0515	-7.45239	-6.04248	4.63257	4.12903	-15.1062
0.052	-6.94885	-4.33044	3.62549	10.0708	-8.35876
0.0525	-7.85522	-7.15027	-6.44531	-0.20142	2.61841
0.053	-7.5531	-1.10779	-6.84814	1.51062	5.43823
0.0535	-5.33752	0.70496	3.8269	-11.17859	-0.10071
0.054	-7.35168	-4.33044	-4.63257	-2.5177	-5.33752
0.0545	1.51062	-2.31628	-12.38708	-3.7262	-4.83398
0.055	-6.94885	-11.98425	-14.19983	1.71204	12.28638
0.0555	-8.35876	-6.74744	-0.90637	-8.7616	-0.70496
0.056	-1.91345	-1.10779	7.65381	8.15735	-2.81982
0.0565	-6.84814	0.80566	10.17151	1.71204	-1.61133
0.057	-8.15735	-3.02124	-2.21558	-3.42407	3.62549
0.0575	0.20142	-3.92761	-2.41699	1.61133	6.74744
0.058	0.70496	-3.02124	-1.10779	-3.7262	-3.92761
0.0585	-5.53894	-1.00708	2.11487	-2.71912	-3.42407
0.059	-1.40991	0.70496	3.32336	1.2085	-3.32336
0.0595	-1.91345	-11.17859	1.40991	-0.70496	4.43115
0.06	-3.42407	-3.42407	2.11487	0.70496	-0.30212
0.0605	-5.94177	-4.43115	3.92761	-0.30212	-0.20142
0.061	3.92761	-0.90637	-4.43115	-8.96301	6.54602
0.0615	-1.40991	-5.74036	-4.83398	-4.83398	4.33044
0.062	2.41699	-8.15735	-0.70496	-1.00708	-3.42407
0.0625	0.10071	-1.00708	-2.01416	9.97009	-6.54602
0.063	2.41699	1.00708	-7.85522	4.83398	1.71204
0.0635	-6.04248	-0.70496	-10.77576	-2.71912	-2.41699
0.064	1.10779	4.02832	0.70496	-3.32336	-0.60425
0.0645	-2.5177	5.23682	-6.2439	-2.31628	-6.84814
0.065	-2.11487	5.84106	-8.8623	-5.43823	-0.90637
0.0655	-0.10071	5.13611	-6.64673	-5.94177	5.43823
0.066	-6.14319	4.43115	-7.85522	-10.0708	-5.43823
0.0665	-4.73328	2.11487	-4.83398	-6.94885	-8.56018
0.067	3.02124	-1.00708	-4.83398	-0.60425	0.90637
0.0675	-6.3446	1.2085	-7.75452	0	1.71204
0.068	-1.10779	1.3092	-1.10779	-6.94885	7.25098
0.0685	-0.60425	-5.94177	-5.43823	-6.94885	5.33752
0.069	4.12903	-7.85522	-3.22266	0.30212	9.36584
0.0695	1.3092	-6.14319	0.70496	-1.91345	5.53894
0.07	-7.35168	-11.48071	-4.12903	-0.60425	3.7262
0.0705	-11.78284	-11.68213	-6.2439	10.17151	-5.0354
0.071	-8.7616	-4.22974	4.93469	10.47363	-10.27222
0.0715	-3.12195	-8.96301	3.32336	2.11487	-7.15027
0.072	-3.92761	-12.18567	-1.71204	-8.7616	-0.40283
0.0725	1.40991	-19.23523	-8.15735	-11.58142	3.22266
0.073	1.3092	-14.80408	-22.05505	-18.22815	10.47363
0.0735	-4.93469	-9.26514	-23.46497	2.81982	9.76868
0.074	-11.07788	-2.71912	-25.47913	13.39417	7.35168
0.0745	-0.10071	-0.90637	-17.82532	30.01099	-7.75452
0.075	-4.53186	-4.83398	-4.73328	29.91028	-12.5885
0.0755	-3.32336	-7.85522	5.53894	18.63098	-10.17151
0.076	-5.53894	-9.46655	10.17151	-5.0354	-0.30212
0.0765	-9.97009	0.70496	17.22107	-17.01965	1.00708
0.077	-11.58142	11.68213	22.86072	-15.71045	-0.20142
0.0775	-7.35168	4.83398	15.81116	-11.88354	-2.61841
0.078	-5.13611	-4.33044	4.93469	-9.56726	0.70496
0.0785	-10.77576	-13.19275	-0.90637	-15.81116	12.5885
0.079	-9.26514	-5.13611	4.12903	-11.58142	5.53894
0.0795	-15.60974	-9.16443	16.81824	-2.11487	5.84106
0.08	-15.81116	-4.53186	17.42249	4.33044	-2.61841
0.0805	-12.48779	0.60425	12.89062	1.91345	0.30212
0.081	-6.94885	3.92761	10.17151	-5.13611	-1.10779
0.0815	-3.22266	-4.12903	7.5531	-13.59558	1.00708
0.082	1.40991	-1.40991	6.54602	-10.87646	0
0.0825	-3.62549	-7.45239	6.2439	-9.16443	-3.12195
0.083	-2.71912	-9.97009	10.27222	1.00708	7.75452
0.0835	-3.22266	-5.84106	13.89771	3.7262	1.71204
0.084	-2.11487	1.40991	7.45239	5.0354	-6.44531
0.0845	8.8623	9.76868	2.5177	-5.94177	-10.17151
0.085	1.61133	10.0708	3.32336	-10.77576	-13.89771
0.0855	3.62549	10.77576	1.91345	-6.3446	-18.22815
0.086	5.33752	13.797	-3.52478	0.30212	-19.33594
0.0865	5.13611	2.01416	-25.88196	2.11487	-15.00549
0.087	5.74036	1.71204	-31.52161	6.3446	-3.12195
0.0875	6.84814	-1.10779	-30.41382	2.11487	-0.10071
0.088	7.75452	-6.14319	-16.61682	1.81274	2.31628
0.0885	-5.53894	2.31628	-4.93469	3.52478	3.32336
0.089	-4.83398	-0.10071	-8.66089	5.13611	-1.61133
0.0895	-3.7262	-3.42407	-2.31628	3.7262	-2.21558
0.09	-0.80566	10.0708	-3.12195	-3.42407	-3.22266
0.0905	-3.32336	0.50354	-0.50354	-6.44531	-5.13611
0.091	-0.90637	-2.11487	-1.71204	-10.0708	-6.14319
0.0915	-3.12195	2.71912	1.10779	-5.33752	-4.83398
0.092	-4.12903	-1.91345	-2.11487	-1.2085	-6.74744
0.0925	-7.15027	-0.10071	2.01416	-3.8269	-9.46655
0.093	-7.45239	0.90637	0.10071	-5.13611	-13.89771
0.0935	-3.7262	2.01416	0.20142	-2.5177	-9.46655
0.094	-1.3092	3.02124	-0.90637	-4.43115	-6.14319
0.0945	-2.81982	3.7262	-2.31628	-1.71204	-2.5177
0.095	-3.62549	-4.12903	-0.70496	-4.12903	-4.53186
0.0955	-7.15027	-0.60425	1.91345	-9.86938	-3.32336
0.096	-0.80566	-2.41699	2.92053	-7.04956	-8.05664
0.0965	-1.40991	-2.31628	-2.71912	-2.5177	-4.63257
0.097	-5.53894	1.51062	0.20142	-5.74036	-5.23682
0.0975	-1.10779	-2.5177	-3.92761	-1.51062	1.51062
0.098	-2.81982	-4.43115	-2.61841	2.31628	3.7262
0.0985	-3.92761	-6.44531	-10.47363	7.75452	4.63257
0.099	-7.65381	2.31628	-14.80408	8.15735	-2.5177
0.0995	-6.14319	-4.02832	-12.18567	7.65381	-8.56018
0.1	-9.56726	-2.92053	-12.18567	8.56018	-10.37292
0.1005	-3.22266	-5.74036	3.8269	8.56018	-3.22266
0.101	-5.13611	-1.3092	-4.02832	3.02124	-0.60425
0.1015	-4.43115	-6.3446	-7.04956	-0.10071	-0.90637
0.102	-2.11487	-11.78284	-6.44531	1.91345	1.91345
0.1025	-3.12195	-5.94177	-10.37292	0.90637	1.91345
0.103	-5.33752	2.11487	-10.47363	-4.22974	0.40283
0.1035	-1.10779	0.70496	-7.85522	-2.92053	-2.31628
0.104	-0.50354	-3.02124	-2.5177	-2.61841	1.00708
0.1045	-3.02124	-4.12903	-3.8269	-2.61841	-2.31628
0.105	-2.5177	-7.5531	-8.66089	0.50354	2.5177
0.1055	-3.42407	-7.85522	-8.96301	8.15735	6.14319
0.106	-2.61841	-0.10071	-9.66797	0.80566	14.80408
0.1065	-4.83398	0.10071	-8.96301	6.74744	-1.61133
0.107	-14.70337	4.43115	1.2085	8.7616	-7.5531
0.1075	-13.99841	3.22266	12.38708	-3.02124	-13.49487
0.108	-4.12903	-4.93469	9.97009	-11.07788	-0.90637
0.1085	0	-3.8269	2.92053	-17.82532	5.23682
0.109	-1.10779	-6.3446	1.00708	-22.25647	3.12195
0.1095	0.10071	-4.73328	-0.50354	-9.26514	-11.78284
0.11	-3.62549	-0.70496	-2.71912	22.86072	-14.50195
0.1105	-3.22266	-3.8269	-3.12195	6.2439	-2.71912
0.111	-3.7262	-6.74744	-5.0354	4.53186	1.40991
0.1115	-0.70496	-1.51062	0.80566	1.71204	-6.94885
0.112	-8.05664	-0.70496	-1.61133	0.90637	1.3092
0.1125	-6.64673	-2.81982	-3.7262	-8.35876	2.31628
0.113	-2.41699	0.70496	2.11487	-6.44531	0.70496
0.1135	-11.58142	1.10779	9.16443	0.90637	-9.36584
0.114	-5.94177	-1.3092	-1.00708	5.53894	-12.38708
0.1145	-7.25098	1.71204	5.53894	1.51062	-11.98425
0.115	-5.74036	-10.37292	-5.74036	0.90637	2.92053
0.1155	-4.02832	-9.36584	-7.65381	-8.56018	3.92761
0.116	0	-7.5531	-10.47363	-4.73328	6.64673
0.1165	2.21558	-5.53894	-11.17859	-11.68213	8.7616
0.117	-7.75452	-6.94885	-4.12903	-9.76868	4.53186
0.1175	-4.02832	-3.12195	-0.70496	3.32336	-2.21558
0.118	-7.75452	0.30212	2.71912	1.3092	-5.0354
0.1185	-4.12903	0.50354	4.33044	4.12903	-9.46655
0.119	-7.95593	-0.50354	-2.5177	10.37292	-9.16443
0.1195	-1.3092	-10.77576	3.92761	4.43115	-6.64673
0.12	-11.58142	-7.85522	-2.11487	-1.71204	-0.10071
0.1205	-6.74744	-6.3446	0.50354	-5.33752	-3.92761
0.121	2.11487	-2.71912	3.42407	2.41699	-2.71912
0.1215	1.3092	-3.22266	-4.02832	-6.04248	-2.5177
0.122	-1.40991	-5.53894	-10.67505	-12.18567	5.13611
0.1225	-4.33044	-1.81274	-3.52478	-0.80566	2.41699
0.123	-4.53186	-4.83398	-9.46655	-1.51062	-5.13611
0.1235	-4.33044	1.00708	-8.25806	1.2085	-1.91345
0.124	0.30212	-2.92053	-2.11487	-3.52478	-0.70496
0.1245	1.3092	-4.33044	-3.92761	-3.12195	-3.7262
0.125	5.23682	-5.74036	-8.25806	3.02124	-7.15027
0.1255	0	-1.10779	-6.44531	9.36584	1.2085
0.126	-3.42407	-6.3446	-16.01257	-0.60425	7.45239
0.1265	-0.10071	0.10071	-6.14319	-7.85522	1.3092
0.127	-5.53894	2.31628	-7.65381	-11.88354	1.81274
0.1275	0.10071	-0.20142	12.89062	-10.47363	-0.90637
0.128	1.10779	-4.63257	15.40833	-5.33752	-4.02832
0.1285	-11.2793	-1.71204	13.29346	8.56018	-3.52478
0.129	-3.52478	-2.92053	11.88354	8.7616	-4.63257
0.1295	-9.76868	-6.64673	-7.5531	8.56018	2.31628
0.13	2.92053	-5.23682	-12.99133	-4.63257	10.0708
0.1305	-3.22266	-14.30054	-11.58142	-20.24231	8.05664
0.131	-1.71204	-5.53894	-7.5531	-13.19275	1.71204
0.1315	-1.81274	0.10071	16.61682	-5.63965	-6.3446
0.132	-8.66089	5.33752	13.99841	-11.58142	-2.41699
0.1325	-7.85522	-0.60425	7.25098	-5.74036	-7.65381
0.133	-3.12195	-1.51062	10.47363	-10.97717	-8.45947
0.1335	-4.63257	3.32336	6.94885	-5.53894	-3.92761
0.134	-0.50354	2.71912	5.43823	-11.07788	-0.50354
0.1345	1.2085	1.81274	2.11487	-10.77576	2.71912
0.135	-7.35168	-1.10779	1.61133	-17.01965	-7.95593
0.1355	-0.90637	-1.00708	-8.96301	-16.41541	-2.5177
0.136	-11.48071	-0.10071	-9.97009	6.44531	-2.11487
0.1365	-7.95593	-3.02124	-11.07788	28.29895	-7.95593
0.137	-14.40125	3.52478	-0.10071	6.94885	-10.77576
0.1375	-10.77576	2.5177	8.45947	10.87646	-3.7262
0.138	-5.33752	-2.31628	3.8269	9.36584	-2.92053
0.1385	-2.71912	0.10071	3.42407	3.02124	2.92053
0.139	-1.00708	1.81274	-0.50354	6.74744	-2.11487
0.1395	1.10779	2.92053	-5.94177	-1.51062	-5.53894
0.14	-4.63257	-1.91345	-3.7262	-1.3092	3.02124
0.1405	-5.94177	-0.10071	-0.10071	4.73328	-2.41699
0.141	-3.52478	-1.61133	-7.5531	-0.10071	-0.50354
0.1415	-5.33752	-0.50354	-11.17859	-0.50354	-0.10071
0.142	-2.11487	1.91345	-2.5177	1.10779	-5.33752
0.1425	-3.02124	-4.22974	-5.13611	-1.81274	-4.12903
0.143	-3.02124	-0.30212	-7.04956	1.2085	-2.92053
0.1435	-0.70496	-4.63257	-7.35168	3.8269	2.31628
0.144	-7.35168	-0.10071	2.41699	-0.70496	-3.62549
0.1445	-3.7262	-3.22266	3.52478	-4.12903	6.64673
0.145	-6.74744	1.10779	2.41699	-3.22266	1.2085
0.1455	-8.96301	0	0.30212	-7.35168	3.22266
0.146	0.50354	-7.5531	-3.42407	-6.14319	5.33752
0.1465	-3.42407	-6.2439	-0.30212	-1.51062	-1.3092
0.147	0.10071	-3.42407	-0.70496	-7.45239	-4.33044
0.1475	-4.33044	-4.22974	2.31628	-9.26514	0.30212
0.148	0.60425	-6.14319	1.3092	-20.04089	10.17151
0.1485	-8.96301	-3.7262	-4.33044	-26.88904	10.77576
0.149	-7.65381	-7.95593	-7.75452	-9.46655	-6.84814
0.1495	-1.10779	-7.45239	-4.53186	12.5885	-13.797
0.15	-0.30212	-0.80566	-2.5177	12.89062	-3.02124
0.1505	-1.91345	-2.41699	-3.92761	8.15735	-1.71204
0.151	-1.10779	-4.12903	1.10779	5.0354	-3.12195
0.1515	2.21558	-1.81274	-5.13611	-3.02124	-1.51062
0.152	2.31628	-0.90637	-3.8269	-11.68213	-4.12903
0.1525	-5.63965	-7.15027	-3.52478	-4.73328	-2.21558
0.153	-0.30212	-7.65381	-5.74036	2.61841	3.22266
0.1535	-0.90637	-3.42407	-8.35876	-0.60425	-4.12903
0.154	-1.81274	-5.94177	-4.33044	4.73328	1.3092
0.1545	-2.11487	-4.12903	-0.30212	2.11487	0.40283
0.155	-1.51062	2.11487	-7.25098	-1.40991	0.50354
0.1555	-1.3092	-4.53186	-2.31628	5.53894	-1.91345
0.156	-3.32336	-5.74036	-0.10071	-7.15027	3.02124
0.1565	-2.92053	-8.7616	-12.38708	-22.86072	7.35168
0.157	-3.12195	-8.35876	-6.14319	-19.23523	-0.30212
0.1575	2.41699	-0.80566	-5.74036	-7.5531	-11.58142
0.158	-1.10779	0.70496	0.70496	16.41541	-9.56726
0.1585	-0.90637	2.61841	10.67505	10.57434	-6.44531
0.159	-5.13611	-5.13611	-0.10071	5.33752	-5.0354
0.1595	-7.04956	-3.52478	-0.60425	1.10779	-3.7262
0.16	-3.12195	-5.94177	-8.25806	-0.70496	2.01416
0.1605	-2.31628	0.70496	-11.98425	-4.02832	0.60425
0.161	-3.32336	-8.56018	-12.18567	-1.51062	6.14319
0.1615	-3.22266	-3.7262	-0.10071	0.50354	-4.53186
0.162	0.90637	5.0354	3.7262	-5.84106	-5.74036
0.1625	-6.94885	5.13611	8.45947	-2.81982	-1.40991
0.163	-3.02124	-6.04248	0.40283	1.40991	-0.30212
0.1635	0.50354	-3.7262	-0.70496	-1.00708	-6.74744
0.164	-4.33044	-1.40991	3.12195	-0.10071	3.42407
0.1645	-6.74744	-4.33044	-0.10071	11.48071	-1.81274
0.165	-6.3446	-2.92053	-5.33752	12.38708	-0.70496
0.1655	-5.84106	-6.84814	-6.44531	6.84814	5.23682
0.166	-6.3446	1.91345	-10.27222	4.02832	12.5885
0.1665	-3.42407	-3.8269	-6.2439	1.51062	2.61841
0.167	-2.21558	-3.32336	-0.10071	5.43823	-4.93469
0.1675	-5.33752	0.30212	8.66089	-1.10779	-8.7616
0.168	-7.35168	-1.3092	9.76868	-3.32336	-6.74744
0.1685	-5.33752	-5.33752	5.13611	-5.63965	-0.10071
0.169	-3.12195	-7.35168	4.63257	-6.14319	1.71204
0.1695	-1.91345	-7.15027	-4.33044	-5.23682	1.10779
0.17	-3.92761	-7.25098	-2.61841	-13.29346	0.80566
0.1705	-2.11487	-3.7262	-0.80566	-8.35876	-1.40991
0.171	-6.2439	0.60425	-1.71204	-1.61133	-11.17859
0.1715	-12.78992	-1.51062	6.44531	11.88354	-10.27222
0.172	-11.07788	-8.35876	-5.63965	3.92761	-2.61841
0.1725	-2.5177	-5.43823	-9.97009	0.30212	8.05664
0.173	-7.95593	-4.12903	-10.77576	-13.19275	-0.10071
0.1735	-7.35168	-0.30212	2.71912	-0.10071	-9.16443
0.174	-9.56726	0.20142	9.16443	15.60974	-16.41541
0.1745	-4.73328	1.71204	4.22974	5.33752	-6.04248
0.175	-3.92761	-10.57434	-1.51062	-0.10071	7.5531
0.1755	-5.84106	-12.18567	3.92761	-9.06372	10.27222
0.176	-7.95593	-7.95593	3.22266	-5.13611	12.5885
0.1765	-14.80408	-12.18567	7.15027	-5.23682	11.98425
0.177	-16.61682	-6.3446	-0.70496	-2.41699	15.40833
0.1775	-7.04956	-6.2439	-1.3092	3.7262	13.49487
0.178	-3.8269	-4.02832	-3.12195	-2.81982	-1.51062
0.1785	-0.30212	-0.60425	-5.13611	3.7262	-8.56018
0.179	7.15027	3.42407	-5.63965	4.53186	-4.22974
0.1795	16.21399	0.70496	-4.53186	-8.96301	-9.26514
0.18	9.66797	2.01416	-5.53894	-11.98425	-9.26514
0.1805	2.31628	1.71204	-1.3092	-11.07788	-7.65381
0.181	-1.10779	-10.57434	-9.06372	-18.73169	-1.00708
0.1815	0.20142	-10.17151	-10.37292	-19.33594	-2.61841
0.182	-8.8623	-9.06372	-1.61133	-10.57434	2.71912
0.1825	-6.14319	3.42407	7.25098	3.62549	-2.01416
0.183	-3.42407	3.42407	6.94885	9.26514	-5.63965
0.1835	-5.43823	-6.74744	-7.75452	17.12036	0.10071
0.184	-5.23682	-8.56018	-7.75452	7.25098	-2.21558
0.1845	0.20142	5.43823	1.91345	-9.36584	-7.85522
0.185	3.32336	5.43823	0.70496	-16.61682	-9.06372
0.1855	4.93469	6.94885	-7.5531	-8.35876	-18.93311
0.186	4.12903	6.64673	-6.84814	-6.3446	-15.40833
0.1865	-1.51062	3.22266	0.70496	-4.63257	-8.56018
0.187	-1.91345	-0.60425	-3.02124	4.02832	-6.14319
0.1875	2.31628	0.50354	6.74744	8.7616	-5.13611
0.188	-4.53186	-4.33044	2.92053	1.71204	-1.10779
0.1885	-7.5531	-9.56726	0.90637	4.02832	4.43115
0.189	-6.74744	-9.36584	0.10071	12.68921	-0.70496
0.1895	-8.96301	-7.35168	1.81274	3.92761	5.53894
0.19	-12.5885	-7.5531	4.12903	6.2439	-2.92053
0.1905	-1.71204	-4.02832	3.42407	-0.50354	-5.53894
0.191	0.70496	1.3092	-1.2085	5.53894	-9.76868
0.1915	4.93469	1.00708	-5.33752	-5.13611	-8.05664
0.192	-0.30212	-1.40991	1.3092	-7.35168	-2.11487
0.1925	-2.5177	-2.71912	-4.22974	-5.43823	-7.65381
0.193	2.11487	-6.2439	-5.84106	-3.52478	-1.71204
0.1935	5.0354	-9.97009	-5.74036	-0.30212	-4.12903
0.194	0.90637	-6.14319	1.40991	-1.91345	-0.70496
0.1945	-4.43115	-7.95593	-0.60425	-1.3092	-2.81982
0.195	-3.8269	-3.02124	-6.44531	-3.32336	-2.81982
0.1955	-4.53186	-1.81274	-2.41699	-0.70496	0
0.196	-5.43823	-2.71912	-0.90637	-3.7262	3.02124
0.1965	-13.39417	-5.43823	-1.81274	-3.7262	9.36584
0.197	-7.35168	-6.3446	-4.43115	-11.38	7.35168
0.1975	-0.90637	-7.5531	-4.93469	-7.25098	2.31628
0.198	4.93469	-5.74036	3.42407	1.00708	-5.33752
0.1985	-1.10779	-1.10779	6.74744	10.87646	-6.94885
0.199	-1.3092	-2.31628	-0.30212	2.71912	-5.74036
0.1995	-5.43823	0.70496	1.71204	-4.02832	-2.31628
0.2	-0.30212	-10.17151	-1.61133	-1.10779	-1.91345
0.2005	-4.93469	0.80566	-2.11487	-0.10071	-1.3092
0.201	-12.78992	2.11487	1.71204	1.3092	1.61133
0.2015	-3.62549	0.40283	1.10779	4.63257	-0.50354
0.202	0.40283	-8.56018	-6.3446	2.5177	-0.40283
0.2025	-2.71912	-5.94177	-5.0354	-3.92761	2.11487
0.203	-2.01416	-4.63257	-1.71204	-12.5885	6.84814
0.2035	-4.83398	-0.10071	-8.96301	-2.71912	2.92053
0.204	-8.56018	0.30212	-0.30212	-0.60425	-7.15027
0.2045	-16.81824	0.30212	2.21558	9.36584	-4.93469
0.205	-8.35876	-4.63257	-1.00708	14.60266	-4.53186
0.2055	0.10071	-2.11487	-3.52478	-4.93469	0.70496
0.206	2.21558	-3.52478	-6.74744	-16.41541	6.94885
0.2065	-4.33044	-6.3446	0.50354	-13.797	0.60425
0.207	-2.61841	-2.21558	0.70496	-7.95593	-4.53186
0.2075	-0.90637	-1.81274	1.91345	13.59558	-5.53894
0.208	-6.94885	-5.94177	-0.40283	9.56726	-6.94885
0.2085	-1.81274	-2.81982	1.00708	6.54602	0.20142
0.209	-5.0354	-4.22974	-3.7262	8.15735	0.70496
0.2095	-3.22266	-7.35168	4.12903	0.50354	-0.10071
0.21	5.33752	-2.41699	-3.12195	2.31628	0.70496
0.2105	-7.15027	0.10071	-3.8269	3.12195	0.80566
0.211	-5.84106	-2.71912	9.86938	5.43823	-1.51062
0.2115	-0.20142	-5.63965	1.10779	1.91345	2.71912
0.212	-6.14319	-2.5177	-0.80566	-0.40283	-1.10779
0.2125	-3.52478	-8.8623	-0.90637	0.70496	1.10779
0.213	-7.35168	-3.02124	-0.10071	-3.7262	-1.71204
0.2135	-6.3446	-4.33044	0.90637	-0.20142	-0.90637
0.214	-4.12903	1.00708	-1.51062	1.81274	-1.51062
0.2145	-7.35168	-1.2085	-1.40991	-2.01416	0.40283
0.215	-8.45947	-3.8269	-1.40991	1.81274	-5.23682
0.2155	-3.62549	-5.74036	-5.53894	-0.60425	-0.10071
0.216	0.40283	-5.53894	0	-2.11487	-3.8269
0.2165	-2.31628	-5.74036	0.30212	-0.70496	-6.54602
0.217	-7.15027	-7.15027	0.90637	-5.94177	-0.10071
0.2175	-5.53894	-4.53186	-3.52478	-7.35168	-1.10779
0.218	-5.94177	-4.43115	1.81274	-4.12903	0.10071
0.2185	-2.31628	-0.50354	0.10071	-1.10779	-4.73328
0.219	-1.71204	-2.71912	-4.12903	-7.85522	2.71912
0.2195	-2.61841	-3.12195	-2.21558	-7.35168	-1.51062
0.22	-7.35168	0	-2.92053	1.3092	-7.35168
0.2205	-2.5177	-7.75452	-4.33044	3.52478	-1.71204
0.221	-4.93469	-7.35168	-1.91345	-1.40991	6.54602
0.2215	0.70496	-2.92053	0.70496	-0.20142	3.22266
0.222	2.31628	-5.94177	-0.10071	-1.10779	-0.10071
0.2225	-3.92761	1.40991	-3.62549	2.21558	-0.10071
0.223	2.81982	-2.31628	-4.12903	-4.22974	-3.52478
0.2235	-1.10779	-4.53186	0.70496	-4.53186	-4.12903
0.224	-0.40283	-8.05664	-0.30212	-5.33752	1.00708
0.2245	-5.84106	-8.56018	-3.22266	-12.48779	0.50354
0.225	0.80566	0.50354	-0.50354	-11.78284	-1.3092
0.2255	-2.81982	2.21558	-2.71912	-8.8623	-1.3092
0.226	-8.25806	-1.71204	-10.87646	0.90637	-1.71204
0.2265	-10.27222	1.51062	-15.00549	-3.12195	7.04956
0.227	-6.94885	-7.35168	-2.11487	-11.68213	3.02124
0.2275	-4.33044	-8.35876	-6.04248	-20.64514	5.53894
0.228	-4.73328	-6.14319	-7.5531	-11.78284	-7.25098
0.2285	-2.71912	6.64673	8.56018	-4.73328	-6.74744
0.229	-8.45947	5.53894	11.48071	8.35876	0.20142
0.2295	-12.18567	-2.5177	11.98425	10.17151	1.81274
0.23	-12.08496	-1.00708	3.02124	1.81274	2.61841
0.2305	-4.53186	4.93469	0.90637	-9.76868	4.33044
0.231	-4.73328	-5.0354	-8.96301	-8.66089	1.40991
0.2315	-6.04248	-2.21558	4.33044	-3.42407	-8.35876
0.232	0	-2.61841	0	26.48621	-4.93469
0.2325	-3.92761	-1.3092	-4.93469	21.85364	-4.02832
0.233	0.10071	-7.5531	-6.94885	8.35876	-0.80566
0.2335	4.93469	-5.94177	-5.33752	8.66089	0.30212
0.234	-2.71912	-5.63965	-1.3092	14.19983	-8.15735
0.2345	-6.64673	-6.84814	-0.70496	3.8269	-2.71912
0.235	-3.8269	-2.11487	2.61841	-6.54602	0.20142
0.2355	-4.02832	-4.02832	-4.63257	-12.78992	3.92761
0.236	0.20142	-0.10071	3.22266	-10.97717	-5.0354
0.2365	-9.97009	-0.90637	5.53894	8.15735	-6.74744
0.237	-7.5531	-0.70496	2.5177	6.94885	-7.85522
0.2375	-8.35876	2.11487	-1.10779	2.92053	2.71912
0.238	-6.94885	-1.91345	-7.85522	-2.5177	1.3092
0.2385	-3.32336	-4.12903	-8.56018	-1.3092	-11.68213
0.239	-5.43823	0.10071	4.53186	3.7262	-9.46655
0.2395	-3.92761	4.12903	16.41541	-1.00708	-11.17859
0.24	-3.52478	1.3092	4.33044	2.31628	5.43823
0.2405	-3.02124	-3.12195	-2.21558	-6.74744	15.30762
0.241	-7.75452	-6.54602	-11.58142	-16.01257	10.17151
0.2415	-1.91345	-5.43823	-8.7616	-7.75452	0.10071
0.242	-3.52478	-5.13611	0	5.13611	0.50354
0.2425	-0.60425	-0.40283	10.37292	7.35168	-5.53894
0.243	-1.40991	-8.45947	4.02832	8.7616	-10.77576
0.2435	1.81274	-0.40283	-2.41699	-2.11487	-2.31628
0.244	-1.51062	-4.22974	-3.12195	-0.90637	-0.60425
0.2445	-7.35168	-10.37292	-3.32336	0.10071	0.40283
0.245	-6.44531	0.40283	-0.30212	7.65381	-2.31628
0.2455	-10.77576	-7.45239	0.70496	3.02124	-0.10071
0.246	-4.73328	-5.0354	2.92053	-4.12903	7.85522
0.2465	-1.91345	-4.93469	-5.63965	-8.7616	11.98425
0.247	-1.81274	0.30212	-5.63965	-5.53894	1.91345
0.2475	-2.92053	5.33752	-8.66089	7.25098	-5.53894
0.248	-2.61841	3.02124	-7.75452	6.74744	-10.37292
0.2485	-4.73328	5.43823	5.74036	10.37292	-11.88354
0.249	-5.0354	1.10779	10.57434	4.02832	-4.53186
0.2495	-3.02124	1.71204	4.02832	-10.97717	4.12903
0.25	-3.7262	-1.40991	-0.10071	-17.22107	13.59558
0.2505	-5.84106	-4.12903	-3.12195	-17.01965	2.11487
0.251	-0.70496	4.12903	1.3092	2.61841	-13.99841
0.2515	-0.70496	0.10071	5.74036	3.02124	-9.56726
0.252	-0.90637	-2.11487	-0.10071	4.02832	0.70496
0.2525	-7.5531	-4.33044	2.92053	-1.40991	4.93469
0.253	-1.71204	-8.45947	-2.21558	-3.12195	2.31628
0.2535	-2.41699	1.61133	-1.40991	-1.91345	-2.11487
0.254	-6.04248	-1.2085	5.74036	-2.61841	-8.56018
0.2545	-3.8269	-2.21558	0.90637	0.50354	-3.8269
0.255	0.50354	-0.10071	-2.81982	-7.85522	-3.22266
0.2555	2.71912	-0.90637	-11.88354	-11.58142	1.51062
0.256	2.31628	-3.92761	-8.35876	-11.07788	-5.0354
0.2565	-0.80566	0	-6.54602	-10.77576	-6.3446
0.257	-4.33044	-5.13611	0.60425	-7.45239	-0.50354
0.2575	-0.60425	-1.91345	4.43115	-4.12903	-1.51062
0.258	-4.33044	-3.52478	0	-7.5531	-2.5177
0.2585	-2.5177	-0.80566	-4.73328	-5.33752	-3.8269
0.259	-7.45239	1.71204	-4.22974	-1.91345	2.92053
0.2595	-1.3092	0.60425	2.31628	-0.40283	-2.5177
0.26	-3.8269	-5.23682	-1.2085	-1.61133	-0.10071
0.2605	-1.00708	-6.3446	-2.71912	-3.32336	-0.30212
0.261	1.71204	1.00708	-2.21558	2.41699	-5.43823
0.2615	2.21558	-6.74744	-3.92761	4.73328	-2.31628
0.262	1.61133	1.51062	-3.8269	6.64673	-8.45947
0.2625	-6.14319	-2.71912	-7.25098	9.36584	3.52478
0.263	-3.12195	2.92053	-1.3092	8.7616	-3.8269
0.2635	-4.12903	-2.5177	3.02124	3.02124	-5.43823
0.264	-7.35168	-1.91345	-0.90637	3.52478	-5.33752
0.2645	-5.33752	-6.74744	-7.04956	0.40283	-6.2439
0.265	-3.52478	-5.33752	-4.53186	2.11487	-7.75452
0.2655	-3.8269	-7.65381	-16.61682	2.92053	-0.80566
0.266	-1.91345	0.70496	-5.33752	-0.10071	1.2085
0.2665	-2.81982	-1.00708	8.05664	-0.10071	-0.70496
0.267	-4.53186	-8.56018	5.63965	-1.40991	2.61841
0.2675	-5.23682	-1.3092	0.50354	4.53186	4.53186
0.268	-4.53186	-5.94177	-4.02832	9.76868	8.7616
0.2685	-3.02124	-8.66089	-11.17859	3.62549	5.63965
0.269	-3.8269	-1.51062	-9.86938	1.81274	9.46655
0.2695	-2.61841	-0.70496	-2.5177	-14.80408	4.12903
0.27	-6.04248	-0.10071	1.81274	-14.70337	-1.81274
0.2705	-3.7262	4.53186	5.33752	-7.95593	-4.73328
0.271	-14.80408	1.61133	3.32336	3.32336	-7.35168
0.2715	-13.49487	-1.51062	-6.84814	8.05664	-3.52478
0.272	-6.2439	-5.0354	-9.46655	6.14319	-3.92761
0.2725	-2.92053	-4.33044	-12.38708	0.60425	3.7262
0.273	0.70496	-2.92053	-11.17859	-0.90637	3.8269
0.2735	0.40283	-4.43115	-2.01416	-10.27222	6.64673
0.274	4.93469	-4.43115	-5.74036	-12.08496	-9.16443
0.2745	-1.71204	1.91345	4.43115	8.56018	-8.7616
0.275	-1.10779	3.52478	9.16443	9.36584	-0.50354
0.2755	-7.65381	1.51062	8.05664	-2.31628	4.22974
0.276	-4.12903	-5.13611	-2.31628	-7.5531	3.92761
0.2765	-2.5177	-10.27222	-3.8269	-11.98425	2.31628
0.277	-2.61841	-4.12903	-5.43823	-9.56726	13.29346
0.2775	-1.10779	-0.20142	-0.60425	-11.17859	0.10071
0.278	-4.53186	1.71204	5.84106	-0.90637	-0.10071
0.2785	-10.87646	-0.90637	11.07788	-4.93469	-0.20142
0.279	-9.16443	-2.92053	0	-15.60974	-3.02124
0.2795	-4.22974	-2.71912	-6.14319	-7.15027	-1.10779
0.28	5.0354	0.30212	-15.1062	-4.12903	3.8269
0.2805	11.38	-1.61133	-16.61682	-9.06372	-0.30212
0.281	-0.90637	-4.63257	-3.52478	-5.33752	-4.12903
0.2815	-9.56726	-1.51062	1.61133	7.35168	-4.83398
0.282	-10.67505	-0.90637	7.35168	6.74744	-8.56018
0.2825	-6.04248	-3.52478	8.7616	-0.90637	-7.35168
0.283	-0.20142	-11.07788	3.8269	-0.10071	-0.30212
0.2835	-0.10071	-7.04956	1.71204	6.2439	-7.5531
0.284	-6.04248	-1.00708	0.50354	13.19275	-6.44531
0.2845	-0.90637	-3.92761	-0.60425	10.77576	-7.15027
0.285	-3.92761	-6.94885	-6.3446	3.52478	7.35168
0.2855	3.92761	-4.12903	-2.71912	-0.80566	-0.10071
0.286	-6.94885	-0.30212	-3.42407	-6.3446	-3.52478
0.2865	-10.37292	5.74036	4.12903	-1.00708	-10.37292
0.287	-1.00708	2.01416	-1.00708	3.42407	-7.15027
0.2875	-4.73328	1.91345	1.51062	3.22266	-8.25806
0.288	-8.05664	-2.11487	5.33752	-5.53894	-10.0708
0.2885	-1.40991	4.63257	-0.90637	-1.81274	-0.90637
0.289	-7.15027	-3.42407	0.40283	5.84106	-15.40833
0.2895	2.61841	-12.08496	-3.7262	11.98425	-6.94885
0.29	3.52478	-10.67505	-11.68213	12.68921	4.02832
0.2905	-1.3092	-7.65381	-10.27222	10.37292	-0.20142
0.291	-1.61133	-0.90637	-6.04248	-5.94177	1.61133
0.2915	0	-6.44531	0.70496	-20.44373	0.30212
0.292	-2.61841	-2.92053	1.81274	-8.45947	2.21558
0.2925	3.8269	-4.63257	-4.83398	14.50195	-2.21558
0.293	-4.53186	-4.43115	-4.02832	-0.70496	4.33044
0.2935	-9.97009	-8.96301	2.21558	-5.13611	-4.02832
0.294	-10.97717	1.40991	10.17151	-2.01416	-8.15735
0.2945	-4.33044	0.70496	7.04956	-2.11487	-5.63965
0.295	-2.11487	1.61133	3.8269	3.8269	10.27222
0.2955	-3.8269	2.81982	9.16443	1.40991	0.20142
0.296	1.71204	-7.45239	3.42407	-3.32336	-0.60425
0.2965	4.22974	-5.74036	-0.10071	5.53894	-4.73328
0.297	1.2085	1.81274	5.74036	3.42407	-9.76868
0.2975	-4.22974	-5.53894	-0.10071	4.93469	-8.45947
0.298	-1.81274	0.20142	-2.21558	-4.53186	0
0.2985	-0.50354	-3.52478	-1.00708	-4.33044	-5.63965
0.299	-5.23682	-1.61133	1.3092	-2.71912	-3.8269
0.2995	-1.91345	-2.31628	-2.41699	-3.8269	-1.10779
0.3	-0.10071	-1.91345	-9.97009	-1.2085	5.53894
0.3005	-1.10779	-3.62549	1.71204	-2.41699	-5.53894
0.301	2.21558	-0.80566	1.10779	-8.35876	-0.50354
0.3015	1.00708	0.90637	9.76868	-2.61841	-3.8269
0.302	-5.23682	-6.54602	-1.10779	-3.52478	-5.33752
0.3025	-4.63257	-2.11487	1.10779	0.10071	-1.10779
0.303	-1.71204	-4.12903	3.42407	-2.81982	-1.10779
0.3035	-11.58142	-3.52478	6.74744	-0.40283	2.01416
0.304	-3.12195	-1.61133	5.94177	-1.40991	-1.91345
0.3045	-4.83398	-2.92053	0.70496	-4.83398	-1.40991
0.305	-1.00708	-3.92761	-1.2085	3.7262	1.81274
0.3055	0.60425	-4.53186	-1.10779	4.53186	5.74036
0.306	-1.40991	-1.61133	1.91345	-0.30212	2.31628
0.3065	-4.83398	1.3092	-2.61841	2.31628	-0.90637
0.307	-5.94177	-2.11487	0.30212	2.5177	-2.5177
0.3075	-2.21558	4.22974	-6.54602	-2.41699	-2.71912
0.308	-1.2085	-3.92761	-11.17859	-1.61133	0.90637
0.3085	-3.12195	-6.74744	-20.04089	-0.20142	-3.52478
0.309	-5.84106	-7.35168	-21.65222	-2.21558	-7.25098
0.3095	-6.64673	0.30212	-1.00708	-3.22266	-7.04956
0.31	-6.74744	0.20142	3.62549	-13.19275	0.40283
0.3105	-6.94885	1.91345	4.53186	-1.81274	0
0.311	-2.21558	-5.74036	-0.40283	-4.12903	4.22974
0.3115	-1.91345	-3.92761	-3.32336	-8.05664	0.90637
0.312	-0.70496	-8.15735	-0.40283	-8.35876	2.61841
0.3125	-6.14319	0.40283	-2.92053	10.97717	1.10779
0.313	-4.02832	-7.95593	-3.62549	21.04797	1.00708
0.3135	-0.10071	-5.13611	-2.31628	14.19983	-3.22266
0.314	-6.2439	-1.40991	-0.40283	3.32336	-3.52478
0.3145	-1.40991	-4.22974	-0.10071	3.62549	-3.92761
0.315	-7.15027	-3.52478	-3.8269	7.15027	-8.7616
0.3155	2.92053	-3.22266	-3.22266	7.5531	-6.74744
0.316	-5.84106	-1.40991	0.70496	16.21399	-6.74744
0.3165	-4.33044	6.14319	-0.10071	6.94885	-7.35168
0.317	-8.15735	-0.10071	5.84106	6.2439	-1.2085
0.3175	-5.84106	-0.70496	-6.2439	5.43823	-5.13611
0.318	-4.83398	-5.23682	-7.15027	2.71912	-2.31628
0.3185	-5.53894	-4.83398	0.30212	-4.73328	3.52478
0.319	-8.15735	-13.99841	-2.21558	-5.94177	4.02832
0.3195	-6.14319	-14.90479	5.0354	-9.36584	10.97717
0.32	-11.17859	-16.71753	0.50354	-8.7616	9.86938
0.3205	-12.38708	-12.48779	3.42407	-0.60425	11.78284
0.321	-12.38708	-6.04248	1.2085	3.52478	2.31628
0.3215	-2.92053	-7.5531	4.43115	1.61133	2.71912
0.322	-0.70496	-4.12903	-5.94177	-11.17859	6.84814
0.3225	-0.60425	-6.3446	-10.17151	-10.67505	7.65381
0.323	3.8269	-1.2085	-13.69629	-10.57434	-7.35168
0.3235	0.80566	5.63965	-2.31628	3.42407	-16.3147
0.324	5.63965	11.38	4.02832	6.04248	-12.78992
0.3245	0.10071	9.16443	-3.02124	4.02832	-4.53186
0.325	-0.50354	-0.50354	-1.2085	-0.70496	-3.62549
0.3255	4.12903	-0.70496	-7.35168	-4.22974	-2.71912
0.326	-4.12903	-2.5177	-5.13611	-5.13611	-7.15027
0.3265	1.2085	0.60425	-6.64673	0.40283	-10.97717
0.327	-4.12903	1.3092	-9.26514	-10.57434	-5.13611
0.3275	-3.8269	-1.91345	0.40283	-6.44531	1.81274
0.328	-0.60425	-2.5177	-12.28638	-8.25806	-1.61133
0.3285	6.64673	1.40991	-12.08496	-4.83398	-4.73328
0.329	1.71204	-3.22266	-10.0708	-2.5177	-0.30212
0.3295	2.31628	-4.83398	-10.17151	0.50354	-0.40283
0.33	1.40991	-0.10071	-8.56018	1.40991	-2.41699
0.3305	-0.90637	1.10779	-5.53894	3.52478	-7.35168
0.331	-1.71204	0.90637	2.31628	0.70496	0.40283
0.3315	-3.42407	0.90637	1.3092	-9.36584	-1.40991
0.332	-5.53894	-2.71912	7.15027	-7.25098	-1.3092
0.3325	-3.92761	3.02124	-3.52478	-8.35876	-5.53894
0.333	-7.04956	-4.33044	3.32336	-2.71912	-3.7262
0.3335	-1.3092	-2.92053	1.91345	0.80566	6.44531
0.334	-3.52478	1.71204	3.02124	-5.33752	-5.74036
0.3345	-4.33044	-4.53186	2.01416	-3.7262	-1.51062
0.335	-0.10071	2.31628	0.60425	-3.52478	2.92053
0.3355	-2.81982	-10.17151	-6.04248	-3.12195	-0.90637
0.336	-3.62549	-8.7616	-9.46655	-3.32336	-2.61841
0.3365	-2.21558	-5.33752	-4.12903	4.33044	1.00708
0.337	-11.78284	-5.43823	2.81982	-8.25806	-2.31628
0.3375	-0.10071	-3.7262	-0.10071	-11.58142	-4.63257
0.338	-3.12195	-3.12195	-11.58142	-12.78992	-1.10779
0.3385	-7.35168	-1.00708	5.33752	-10.67505	-2.71912
0.339	-7.95593	-3.12195	4.22974	-2.01416	-4.53186
0.3395	-3.52478	-4.33044	2.21558	-1.51062	3.22266
0.34	-3.7262	-3.52478	3.8269	-7.95593	0.90637
0.3405	-8.25806	0.20142	2.11487	-3.52478	-7.15027
0.341	-2.81982	2.11487	-2.01416	1.61133	-4.73328
0.3415	-4.12903	-0.70496	-4.12903	-0.10071	2.11487
0.342	-13.89771	-2.71912	-1.91345	-1.91345	3.7262
0.3425	-6.3446	-5.43823	-9.26514	-4.43115	6.04248
0.343	-5.23682	1.51062	1.00708	6.84814	-5.53894
0.3435	-10.27222	0.20142	7.45239	8.7616	-2.01416
0.344	-0.90637	2.92053	-3.02124	8.96301	-2.01416
0.3445	2.11487	1.71204	-5.43823	-0.30212	4.12903
0.345	-0.50354	0.30212	-1.3092	-1.2085	-0.50354
0.3455	-3.02124	-2.41699	2.11487	-3.42407	1.3092
0.346	-4.12903	-1.91345	5.33752	6.14319	-3.32336
0.3465	-0.40283	-6.74744	2.61841	-3.12195	-4.12903
0.347	-1.91345	-8.7616	0.30212	-3.22266	-2.92053
0.3475	2.01416	-1.3092	0.30212	-0.20142	-3.02124
0.348	-1.91345	2.71912	-1.91345	-2.41699	-0.10071
0.3485	-4.53186	11.2793	-2.21558	-1.81274	-6.54602
0.349	-0.40283	-5.43823	0.10071	5.0354	-5.74036
0.3495	-6.04248	-1.61133	-6.2439	-12.28638	0.80566
0.35	-7.35168	-7.25098	-7.04956	1.91345	-2.71912
0.3505	-1.51062	-5.43823	3.92761	8.05664	-15.30762
0.351	-0.10071	-3.7262	-1.71204	7.45239	-3.62549
0.3515	-1.91345	-0.60425	1.10779	1.91345	-0.20142
0.352	0	-7.75452	-3.22266	-2.61841	5.84106
0.3525	-6.94885	-1.91345	-3.7262	1.00708	4.53186
0.353	-6.3446	-0.70496	-3.92761	-0.10071	2.81982
0.3535	-1.00708	-0.70496	-6.2439	-4.73328	-0.70496
0.354	-2.31628	-9.97009	-2.31628	-6.14319	2.71912
0.3545	-8.25806	-5.0354	-2.81982	-1.2085	0.90637
0.355	-7.65381	-0.70496	-0.50354	-11.58142	6.14319
0.3555	-11.07788	-1.51062	-2.5177	-9.36584	-0.50354
0.356	-4.63257	-5.63965	3.42407	-6.64673	-15.00549
0.3565	1.91345	1.91345	-0.30212	14.30054	-22.6593
0.357	6.84814	-3.92761	3.92761	14.40125	-0.50354
0.3575	6.64673	-4.73328	-5.63965	4.83398	7.45239
0.358	3.92761	-4.43115	-9.86938	-6.74744	1.40991
0.3585	0.70496	-5.13611	-4.63257	0	14.60266
0.359	1.71204	-2.41699	-17.92603	2.61841	6.04248
0.3595	-1.61133	-5.53894	-9.86938	-0.70496	-0.80566
0.36	-3.52478	-7.85522	-8.96301	10.97717	0.80566
0.3605	-6.04248	-3.52478	-4.43115	12.5885	0.80566
0.361	-0.50354	2.92053	11.38	4.73328	-6.2439
0.3615	-7.75452	2.01416	14.40125	6.54602	-10.47363
0.362	-1.51062	1.51062	12.48779	-7.75452	-7.45239
0.3625	-4.63257	3.7262	10.97717	-3.52478	-4.02832
0.363	2.01416	1.61133	2.81982	-1.61133	-1.61133
0.3635	-1.2085	-4.83398	2.01416	-5.74036	0.30212
0.364	-2.92053	-4.63257	1.2085	-0.30212	-0.10071
0.3645	-5.0354	1.3092	-0.40283	5.53894	-2.71912
0.365	-4.33044	-0.90637	-9.66797	8.25806	0.30212
0.3655	-2.5177	-5.13611	-8.7616	-2.01416	5.74036
0.366	-2.92053	-8.96301	-8.96301	-1.81274	1.10779
0.3665	-4.53186	-10.37292	-8.96301	-17.01965	5.33752
0.367	-13.797	-3.12195	-16.61682	-9.66797	5.33752
0.3675	-12.89062	2.21558	1.51062	-14.90479	-14.19983
0.368	-8.96301	1.2085	3.32336	7.15027	-16.51611
0.3685	-4.33044	-6.04248	-1.71204	7.75452	7.15027
0.369	1.71204	-13.89771	-12.08496	9.97009	2.31628
0.3695	5.63965	0.10071	-11.68213	11.78284	-4.53186
0.37	3.42407	-5.74036	-4.22974	1.71204	-0.10071
0.3705	4.93469	1.91345	-0.10071	-7.65381	2.61841
0.371	0.90637	-8.56018	-9.66797	-5.74036	9.06372
0.3715	4.43115	-7.04956	-12.38708	-2.92053	11.78284
0.372	-3.52478	-2.5177	-9.97009	14.19983	5.94177
0.3725	-13.29346	3.7262	-0.90637	11.17859	-10.57434
0.373	-6.2439	0.60425	7.65381	8.8623	-18.42957
0.3735	-1.81274	4.12903	13.09204	7.25098	-7.95593
0.374	-1.3092	-0.20142	5.33752	-2.11487	-6.84814
0.3745	-6.14319	-0.10071	8.7616	-0.20142	-1.3092
0.375	-6.04248	-9.16443	7.65381	3.22266	-2.41699
0.3755	-2.92053	0	8.56018	1.61133	-1.81274
0.376	-6.64673	-6.3446	4.02832	-14.40125	4.12903
0.3765	-4.43115	2.81982	3.7262	-8.96301	2.81982
0.377	-0.30212	-3.92761	-1.51062	-8.45947	2.31628
0.3775	-6.64673	2.5177	1.10779	-5.53894	-0.30212
0.378	-5.43823	4.63257	2.41699	-0.50354	-8.35876
0.3785	-9.06372	2.81982	1.71204	-1.81274	-5.23682
0.379	-7.5531	-2.92053	5.33752	-6.2439	5.33752
0.3795	-0.90637	-2.11487	-0.60425	0.50354	1.40991
0.38	-4.73328	-10.97717	-0.70496	0.50354	3.32336
0.3805	-0.80566	-4.73328	2.01416	6.14319	0.90637
0.381	0.30212	-8.56018	5.23682	0.20142	-0.40283
0.3815	-7.85522	-6.74744	6.3446	0.50354	-1.10779
0.382	-5.53894	-9.16443	-0.10071	-1.40991	-6.14319
0.3825	-5.84106	1.2085	-4.73328	-1.3092	2.31628
0.383	1.00708	-4.83398	-4.12903	1.3092	0.90637
0.3835	-9.16443	-4.02832	-5.43823	-0.30212	10.0708
0.384	-2.21558	-6.04248	-4.93469	-0.30212	7.75452
0.3845	2.01416	-2.5177	-4.63257	-6.3446	0.80566
0.385	-3.22266	-3.8269	-2.5177	-9.97009	0.60425
0.3855	0.50354	-4.53186	-6.3446	-7.5531	-5.53894
0.386	2.31628	4.33044	0.50354	-2.71912	-5.43823
0.3865	-4.33044	-4.53186	0.30212	2.81982	-7.95593
0.387	3.92761	-6.44531	7.5531	8.45947	2.11487
0.3875	-4.63257	-4.02832	4.63257	4.33044	4.93469
0.388	-4.73328	-6.04248	1.81274	2.92053	-1.10779
0.3885	-2.81982	-1.81274	8.56018	-1.3092	0.10071
0.389	-4.33044	-5.63965	7.45239	-5.53894	2.92053
0.3895	2.01416	-7.35168	2.92053	-5.33752	-1.91345
0.39	-2.31628	7.75452	0.80566	-9.86938	-8.7616
0.3905	5.84106	14.30054	-1.81274	-1.81274	-11.78284
0.391	2.61841	4.33044	1.3092	8.05664	-11.48071
0.3915	-1.2085	1.71204	-1.61133	2.31628	-13.59558
0.392	-7.45239	2.71912	-2.41699	4.02832	-8.56018
0.3925	-5.63965	0.10071	-5.53894	0.10071	-3.62549
0.393	-6.2439	2.31628	-4.53186	-4.63257	-2.71912
0.3935	3.92761	1.2085	-2.41699	-12.89062	-4.22974
0.394	-0.70496	1.40991	-7.45239	-10.57434	-1.40991
0.3945	-2.61841	2.61841	-3.7262	-12.38708	-2.21558
0.395	0.10071	1.2085	1.71204	-8.35876	2.31628
0.3955	1.91345	8.15735	-5.23682	-8.56018	-2.71912
0.396	-6.94885	4.33044	-2.71912	-15.40833	-3.7262
0.3965	-4.73328	-7.75452	-12.99133	-24.37134	3.8269
0.397	-6.04248	-7.15027	-10.77576	-25.68054	19.43665
0.3975	-3.52478	-3.12195	-5.53894	-30.51453	1.10779
0.398	-3.22266	6.44531	-7.25098	11.07788	-21.45081
0.3985	-0.60425	-4.63257	2.11487	19.53735	-13.09204
0.399	-1.81274	-2.21558	3.42407	14.70337	-4.22974
0.3995	0.60425	-7.95593	3.32336	6.44531	-3.62549
0.4	-2.81982	-9.26514	9.16443	3.02124	-2.71912
0.4005	1.3092	-7.15027	2.11487	-0.50354	-1.00708
0.401	-0.10071	-10.57434	-2.92053	1.3092	-5.13611
0.4015	3.92761	-6.54602	-2.92053	4.93469	-5.94177
0.402	0.60425	-8.35876	0.90637	7.25098	0.40283
0.4025	-7.75452	-6.54602	-3.92761	4.12903	8.25806
0.403	-7.65381	-4.93469	-2.71912	-2.71912	9.97009
0.4035	-5.13611	-5.63965	-5.53894	-7.15027	1.00708
0.404	-3.62549	-3.8269	1.10779	3.42407	-11.07788
0.4045	-7.65381	3.22266	3.52478	13.59558	-3.7262
0.405	-1.10779	-1.81274	0.20142	7.15027	3.12195
0.4055	-3.62549	-3.02124	3.62549	4.53186	9.06372
0.406	-7.35168	-2.21558	-2.01416	-7.45239	4.73328
0.4065	-6.3446	-1.00708	-8.8623	2.92053	-7.45239
0.407	-2.71912	-3.8269	-5.94177	-0.10071	-5.13611
0.4075	-6.64673	-0.30212	2.81982	5.63965	-7.25098
0.408	-5.74036	7.75452	10.47363	2.81982	-7.35168
0.4085	-9.06372	-6.84814	10.37292	1.61133	-1.40991
0.409	-9.66797	-0.30212	4.93469	-3.92761	1.00708
0.4095	-5.13611	-4.73328	-4.22974	-6.64673	-5.74036
0.41	-2.92053	2.21558	4.33044	4.12903	-6.54602
0.4105	-0.30212	-1.61133	0.10071	2.71912	1.40991
0.411	-1.40991	-2.61841	-1.81274	-4.83398	2.71912
0.4115	0.80566	-2.92053	-3.8269	-1.51062	-6.3446
0.412	0.70496	-9.36584	-4.12903	-7.95593	-5.13611
0.4125	-3.7262	-13.99841	-0.20142	0.90637	-2.21558
0.413	-10.27222	-7.65381	-11.98425	1.10779	-3.92761
0.4135	-6.04248	-2.81982	-8.05664	0	-3.92761
0.414	1.3092	-1.81274	-3.42407	-2.11487	-0.90637
0.4145	-0.20142	-3.7262	-1.51062	-5.53894	4.33044
0.415	-6.54602	1.71204	-0.20142	-6.04248	5.33752
0.4155	-3.52478	-0.30212	5.94177	-13.59558	-0.20142
0.416	2.11487	-1.81274	0.60425	-9.16443	-4.33044
0.4165	-3.02124	-3.02124	-0.10071	0.70496	-7.35168
0.417	-10.67505	-0.10071	-7.75452	17.82532	-2.92053
0.4175	-6.14319	3.92761	-6.74744	10.17151	4.73328
0.418	-4.12903	-1.71204	-1.3092	0.30212	-1.91345
0.4185	-5.33752	-5.94177	5.53894	-14.40125	-1.10779
0.419	-5.53894	-2.11487	2.92053	-9.36584	0.50354
0.4195	-4.73328	-3.7262	-0.70496	-13.89771	0.20142
0.42	3.92761	-5.0354	-1.2085	-4.53186	-7.75452
0.4205	-9.36584	-6.3446	-1.10779	-1.3092	-7.75452
0.421	-4.93469	-1.2085	3.32336	-7.04956	0.30212
0.4215	-5.23682	-6.2439	-7.15027	-2.92053	0.30212
0.422	-0.10071	-0.10071	-3.42407	12.5885	1.51062
0.4225	-3.12195	-1.51062	-3.52478	17.82532	1.61133
0.423	-3.52478	-9.36584	-1.10779	12.18567	3.92761
0.4235	-5.43823	-5.13611	4.73328	2.5177	3.12195
0.424	-4.33044	-7.85522	-5.33752	1.81274	1.3092
0.4245	-7.35168	-6.74744	-1.91345	-4.53186	10.37292
0.425	-10.97717	-11.98425	2.41699	-3.8269	2.61841
0.4255	-11.78284	-7.25098	-0.90637	2.11487	-2.11487
0.426	-5.33752	0.60425	2.41699	0.20142	2.41699
0.4265	-5.43823	-5.63965	-13.89771	-16.41541	5.53894
0.427	0.90637	-0.10071	-11.38	-13.99841	-0.40283
0.4275	4.93469	-0.50354	-9.06372	-5.0354	-9.36584
0.428	-3.62549	-4.63257	-3.12195	9.66797	-7.15027
0.4285	-7.65381	-3.62549	-7.25098	15.91187	2.5177
0.429	-4.53186	0.90637	-10.37292	3.92761	6.54602
0.4295	1.51062	-7.04956	-14.60266	2.31628	-8.15735
0.43	0.10071	-4.33044	-2.41699	2.31628	-7.15027
0.4305	-1.91345	-6.14319	2.71912	-7.75452	-5.94177
0.431	-5.63965	-1.51062	2.71912	-20.24231	1.3092
0.4315	0.80566	-3.12195	-0.80566	-14.30054	1.71204
0.432	-11.38	2.71912	1.3092	-12.28638	-4.43115
0.4325	-2.31628	10.17151	2.41699	-8.35876	-0.80566
0.433	-15.71045	4.53186	3.8269	0.80566	-2.61841
0.4335	-6.2439	-0.10071	2.92053	0.60425	-6.14319
0.434	-5.63965	-6.74744	3.52478	-2.92053	-2.81982
0.4345	-5.13611	-1.40991	-0.90637	-10.77576	0.10071
0.435	-2.01416	0.90637	-8.35876	-10.77576	-1.91345
0.4355	-1.91345	1.10779	-8.05664	2.31628	-4.43115
0.436	-1.51062	-1.51062	-3.8269	6.64673	-4.73328
0.4365	-1.2085	-6.94885	0.70496	6.14319	6.04248
0.437	1.91345	-10.87646	-5.13611	-4.63257	10.37292
0.4375	-4.22974	-2.31628	-13.19275	-5.43823	-3.92761
0.438	0.90637	-10.87646	-13.797	-2.41699	3.8269
0.4385	3.7262	-7.35168	-16.51611	-1.3092	-1.00708
0.439	0.90637	-1.00708	-10.17151	-6.14319	-2.41699
0.4395	-4.12903	7.75452	13.39417	-3.12195	-5.0354
0.44	-11.58142	6.84814	15.40833	1.81274	-6.3446
0.4405	-8.35876	8.56018	9.46655	2.41699	-5.53894
0.441	-3.52478	3.92761	5.53894	-1.91345	-4.02832
0.4415	-2.71912	-2.5177	3.62549	1.61133	-5.0354
0.442	1.91345	-8.25806	-0.50354	-0.10071	-1.51062
0.4425	1.2085	-5.74036	0.80566	2.01416	-0.70496
0.443	-2.71912	-6.14319	-4.12903	4.43115	-8.35876
0.4435	-5.74036	-11.07788	-3.52478	0.50354	-7.5531
0.444	-6.3446	3.32336	-1.81274	1.10779	-0.90637
0.4445	-6.04248	4.43115	-3.32336	-2.21558	-6.04248
0.445	-4.22974	1.00708	1.2085	-1.91345	-9.76868
0.4455	-1.2085	2.21558	-2.31628	1.71204	-7.15027
0.446	-1.91345	-0.70496	-6.3446	-1.51062	-7.35168
0.4465	-1.51062	-3.42407	-6.54602	-3.12195	-2.11487
0.447	-2.5177	-5.33752	-2.92053	1.40991	7.95593
0.4475	-2.71912	2.01416	2.31628	6.44531	4.02832
0.448	3.7262	3.92761	-6.3446	-0.10071	6.14319
0.4485	0.70496	-0.30212	-5.13611	1.61133	4.12903
0.449	-2.31628	-0.20142	-4.22974	-4.22974	7.35168
0.4495	-4.53186	-6.3446	-3.7262	-5.94177	5.63965
0.45	-7.15027	-4.63257	-0.90637	-7.95593	1.00708
0.4505	-9.46655	-1.51062	-5.94177	-1.10779	-3.92761
0.451	-1.91345	4.73328	-0.90637	18.93311	-10.37292
0.4515	-4.22974	4.83398	2.21558	16.61682	-0.10071
0.452	-5.33752	5.13611	0.90637	4.22974	-1.00708
0.4525	-2.21558	0.50354	3.32336	-1.91345	-1.2085
0.453	-3.12195	0.90637	-0.30212	-7.95593	-4.63257
0.4535	-2.81982	0.10071	0.50354	-9.56726	-1.51062
0.454	-5.13611	-1.91345	-0.10071	1.51062	-3.92761
0.4545	-4.53186	-2.21558	-0.10071	0.20142	0.60425
0.455	-2.41699	-6.04248	3.52478	3.32336	1.81274
0.4555	-3.42407	-2.11487	5.33752	6.14319	1.61133
0.456	-6.84814	-3.02124	0.20142	5.13611	-0.90637
0.4565	-4.63257	-3.92761	3.52478	5.63965	0.50354
0.457	2.71912	-2.31628	-3.02124	-1.91345	1.81274
0.4575	-0.90637	-4.63257	3.7262	-11.78284	2.41699
0.458	-2.31628	-5.63965	-1.61133	-15.71045	3.7262
0.4585	-3.32336	1.00708	-5.74036	-9.26514	-2.21558
0.459	-0.30212	0.80566	-3.7262	2.31628	-11.78284
0.4595	-3.32336	-5.43823	-6.2439	8.7616	3.7262
0.46	-5.74036	-8.25806	-9.36584	10.37292	3.52478
0.4605	-5.13611	-0.90637	1.40991	3.62549	9.16443
0.461	-9.66797	-4.53186	5.53894	-2.21558	1.40991
0.4615	-4.33044	-6.3446	3.22266	-2.11487	1.10779
0.462	-9.26514	-6.94885	0.30212	-1.00708	-3.12195
0.4625	-13.59558	-3.12195	1.71204	-0.60425	-0.30212
0.463	-10.57434	-3.62549	1.10779	-1.81274	-3.22266
0.4635	-8.8623	-5.53894	-1.91345	3.22266	-2.61841
0.464	4.33044	0.30212	-9.66797	3.22266	-1.3092
0.4645	1.61133	-2.11487	-5.13611	-5.0354	3.02124
0.465	3.22266	0.60425	-3.92761	-8.96301	1.71204
0.4655	-3.8269	-3.42407	0	-5.13611	1.2085
0.466	-9.06372	-0.10071	3.22266	-2.5177	-1.91345
0.4665	-2.5177	4.12903	-7.15027	-0.20142	-6.3446
0.467	-7.35168	-1.10779	3.62549	-1.40991	-6.54602
0.4675	-3.8269	-0.10071	-2.71912	2.31628	-2.71912
0.468	-6.14319	-2.31628	0.50354	-7.95593	-0.50354
0.4685	-4.12903	-1.71204	-7.35168	-1.00708	-1.40991
0.469	1.00708	2.71912	-2.31628	-10.57434	0.30212
0.4695	-0.70496	-4.83398	-0.90637	-9.16443	1.91345
0.47	-4.22974	0.60425	-3.62549	-11.17859	-3.02124
0.4705	0.50354	3.92761	-0.10071	-6.74744	-6.3446
0.471	-2.11487	-1.40991	2.41699	-0.20142	-3.52478
0.4715	-1.3092	1.00708	7.85522	-0.10071	0.10071
0.472	0.70496	-5.53894	1.71204	-0.50354	2.71912
0.4725	-5.53894	-8.7616	-5.0354	-6.44531	-3.32336
0.473	-4.43115	-8.96301	0.90637	-8.7616	-4.33044
0.4735	-2.61841	-0.50354	3.8269	-7.75452	-4.93469
0.474	-4.73328	-0.70496	3.7262	-7.35168	-8.96301
0.4745	-1.91345	-0.10071	9.97009	-3.8269	-8.05664
0.475	-2.11487	-0.10071	8.45947	-0.70496	-5.13611
0.4755	-2.5177	2.71912	2.11487	0.20142	-3.52478
0.476	0.60425	-0.70496	-3.12195	-7.95593	-1.3092
0.4765	1.71204	0.60425	-4.33044	-6.2439	2.31628
0.477	-4.63257	5.74036	0.50354	-1.3092	-0.90637
0.4775	-1.51062	-5.13611	-7.25098	2.41699	-8.25806
0.478	-7.5531	-7.95593	-8.66089	1.71204	-1.51062
0.4785	-4.33044	-7.65381	-13.29346	-1.3092	-0.80566
0.479	-5.94177	-6.54602	-11.78284	-5.33752	7.5531
0.4795	-1.91345	-11.68213	-14.50195	-5.33752	-1.40991
0.48	-4.02832	-6.3446	-10.27222	13.797	-5.74036
0.4805	-6.3446	-4.63257	-2.81982	31.62231	-3.92761
0.481	-8.45947	2.21558	-4.93469	20.24231	2.92053
0.4815	-3.7262	-3.52478	-16.11328	8.56018	2.71912
0.482	-0.60425	4.63257	-3.92761	-1.2085	-5.33752
0.4825	-2.92053	1.71204	3.92761	7.85522	5.53894
0.483	2.71912	-11.98425	-15.1062	3.7262	7.25098
0.4835	-0.70496	-5.13611	-23.76709	-2.31628	13.59558
0.484	-5.94177	-6.84814	-18.02673	-0.20142	8.66089
0.4845	-3.02124	-5.13611	-10.67505	-6.2439	3.52478
0.485	-8.05664	-0.80566	6.54602	-4.12903	-6.3446
0.4855	-9.36584	-0.30212	12.68921	-7.95593	-2.31628
0.486	-10.17151	3.22266	16.51611	-14.80408	-3.12195
0.4865	-9.66797	3.8269	13.59558	-9.46655	-10.37292
0.487	-5.43823	2.31628	11.98425	1.3092	-12.18567
0.4875	-3.92761	2.5177	9.97009	1.00708	-5.13611
0.488	-2.11487	2.31628	1.81274	-4.12903	0.10071
0.4885	3.62549	5.94177	-2.5177	-7.5531	0.20142
0.489	0.60425	-0.10071	2.5177	0.30212	-1.81274
0.4895	3.92761	-1.00708	-3.12195	4.02832	-6.74744
0.49	1.3092	0.70496	1.81274	3.32336	-1.10779
0.4905	-6.54602	-0.50354	-2.5177	-0.70496	3.8269
0.491	-1.71204	-1.00708	-4.12903	0.10071	1.51062
0.4915	-2.5177	-8.25806	-1.51062	1.61133	7.45239
0.492	-4.43115	-1.91345	1.3092	3.52478	-1.2085
0.4925	-2.11487	-4.63257	0.40283	-0.10071	-7.95593
0.493	-1.71204	-3.02124	-3.7262	1.2085	-4.33044
0.4935	-0.30212	-5.13611	-10.97717	-12.18567	1.2085
0.494	-3.62549	-9.97009	-9.66797	-12.89062	-0.40283
0.4945	-2.81982	-5.53894	-1.91345	-2.81982	-7.04956
0.495	-2.41699	3.22266	7.45239	-1.51062	-12.08496
0.4955	-4.22974	0.30212	-0.60425	9.46655	-13.49487
0.496	3.7262	-1.3092	1.40991	0.10071	-8.35876
0.4965	3.92761	-6.74744	-0.30212	3.92761	3.52478
0.497	2.81982	-6.84814	1.2085	-4.53186	2.21558
0.4975	-1.3092	-2.01416	-2.41699	5.43823	-0.10071
0.498	-4.12903	-0.30212	-5.13611	-5.74036	9.16443
0.4985	-8.66089	-3.12195	-7.15027	-17.6239	8.7616
0.499	-7.04956	-7.25098	-10.37292	-15.30762	0.30212
0.4995	-6.14319	-0.90637	-6.2439	-4.22974	-4.02832
0.5	-10.17151	0.50354	-9.56726	8.15735	-7.25098
0.5005	-3.7262	3.52478	2.01416	5.94177	-5.43823
0.501	-4.22974	0.90637	2.11487	11.78284	-9.97009
0.5015	2.31628	2.21558	-3.22266	11.68213	-2.11487
0.502	1.61133	-4.33044	-7.15027	0.70496	7.45239
0.5025	-5.63965	-2.31628	-5.43823	-2.31628	-0.50354
0.503	-10.57434	-4.53186	-3.62549	-10.47363	4.12903
0.5035	-7.75452	1.61133	-3.92761	-7.75452	-1.3092
0.504	-9.36584	-0.90637	3.22266	5.43823	-17.22107
0.5045	-2.92053	3.42407	7.65381	13.39417	-9.86938
0.505	-6.2439	-4.12903	-0.70496	-0.70496	3.7262
0.5055	-0.80566	-3.12195	-0.90637	-3.12195	0.80566
0.506	-4.53186	-5.53894	-1.40991	-3.02124	-1.40991
0.5065	-3.12195	-5.23682	-4.43115	0.90637	6.54602
0.507	-1.51062	-7.15027	-0.90637	0.20142	-1.10779
0.5075	-3.92761	-9.16443	-1.81274	0	2.71912
0.508	1.71204	-9.97009	-3.92761	-0.50354	0.30212
0.5085	-0.90637	-18.32886	-7.15027	-0.10071	-4.63257
0.509	-9.97009	-8.15735	-3.12195	5.84106	2.61841
0.5095	-2.92053	-13.29346	7.35168	5.94177	3.62549
0.51	-15.81116	-9.16443	0.60425	9.46655	0.10071
0.5105	-10.57434	-0.50354	-0.20142	-0.10071	-0.50354
0.511	-3.02124	1.91345	-7.35168	-6.3446	-12.5885
0.5115	-3.8269	-3.62549	-8.96301	-10.17151	-14.90479
0.512	0.60425	3.52478	-9.66797	-4.53186	-7.35168
0.5125	-4.83398	-0.50354	-10.67505	2.71912	-1.51062
0.513	-2.21558	0.80566	-4.33044	3.8269	-1.81274
0.5135	-4.63257	-1.40991	-3.7262	13.89771	-5.94177
0.514	6.14319	0.20142	12.28638	-1.00708	-6.64673
0.5145	-1.2085	-4.22974	11.17859	-8.35876	1.81274
0.515	-6.54602	-5.0354	6.74744	-12.78992	2.92053
0.5155	-5.13611	4.83398	1.71204	-3.12195	3.52478
0.516	-6.3446	0.60425	-3.22266	-2.5177	-0.60425
0.5165	-7.04956	-1.61133	2.41699	6.54602	-0.20142
0.517	-10.77576	1.81274	3.32336	-2.11487	-1.91345
0.5175	-4.33044	0	-0.70496	3.02124	-0.70496
0.518	-8.45947	-3.22266	-3.02124	2.71912	1.00708
0.5185	-1.2085	-3.42407	-6.04248	1.91345	3.42407
0.519	-1.40991	-2.31628	-3.12195	0.10071	2.31628
0.5195	5.53894	-10.87646	-0.10071	-4.12903	2.61841
0.52	-5.63965	-2.11487	-4.43115	-7.85522	-5.13611
0.5205	-2.61841	1.40991	-2.92053	-8.45947	0
0.521	-2.92053	-1.10779	3.32336	0.30212	-3.42407
0.5215	-2.92053	0	4.33044	-1.61133	-6.14319
0.522	-7.45239	0.10071	-0.10071	0.70496	-5.84106
0.5225	-1.10779	0.30212	0.60425	-5.13611	-9.56726
0.523	-0.50354	-1.91345	-2.5177	-1.3092	-2.71912
0.5235	1.2085	-3.22266	-11.58142	-7.15027	4.53186
0.524	0.90637	-0.90637	-7.04956	-7.45239	-0.50354
0.5245	-2.71912	-8.56018	-3.12195	-5.33752	3.8269
0.525	-2.71912	-5.84106	-2.21558	8.15735	-3.92761
0.5255	-6.54602	-5.13611	10.47363	3.7262	4.63257
0.526	-8.96301	-9.36584	4.12903	1.2085	8.15735
0.5265	-9.86938	-11.07788	-1.81274	3.52478	5.84106
0.527	-6.64673	-6.74744	-3.02124	-3.12195	-0.60425
0.5275	-12.5885	-4.22974	-2.5177	-6.54602	-2.01416
0.528	-3.22266	-1.2085	-2.61841	-6.3446	-3.8269
0.5285	5.53894	0.50354	-4.22974	9.26514	-11.07788
0.529	6.14319	2.31628	-10.27222	19.63806	-1.3092
0.5295	-0.70496	3.52478	-5.53894	5.0354	3.92761
0.53	2.31628	5.13611	-10.67505	-15.1062	8.7616
0.5305	0.70496	-0.50354	-4.73328	-18.22815	8.05664
0.531	-5.94177	1.71204	1.61133	-20.1416	-1.91345
0.5315	-8.56018	-0.90637	-2.71912	-7.04956	-3.7262
0.532	-10.57434	-0.30212	-7.75452	5.33752	-5.84106
0.5325	-7.04956	-2.11487	-3.42407	8.7616	-7.75452
0.533	-5.0354	-8.35876	-4.73328	4.73328	-1.51062
0.5335	-1.3092	-7.35168	-14.50195	5.0354	5.0354
0.534	-2.31628	1.91345	-2.5177	-0.60425	-0.30212
0.5345	-4.83398	-0.20142	8.56018	-5.53894	-3.12195
0.535	-5.94177	2.61841	2.01416	-5.23682	-4.73328
0.5355	0.70496	0.70496	-7.15027	-0.70496	-5.84106
0.536	-3.12195	-7.65381	-5.33752	-1.10779	-4.33044
0.5365	-5.0354	-5.33752	-7.85522	-8.56018	-5.63965
0.537	-3.42407	-5.43823	2.11487	-2.61841	-5.74036
0.5375	-8.7616	-5.53894	1.71204	-5.53894	-3.22266
0.538	-9.56726	-3.32336	5.53894	-8.7616	2.11487
0.5385	-5.0354	3.42407	-1.10779	-17.32178	3.02124
0.539	-12.99133	1.10779	9.86938	-6.04248	-12.38708
0.5395	-2.11487	-10.87646	4.93469	-3.7262	-10.17151
0.54	2.71912	-2.71912	2.11487	-7.95593	-0.10071
0.5405	-4.43115	-11.07788	-2.31628	-6.3446	3.12195
0.541	-3.7262	-5.94177	-3.8269	-3.52478	-4.33044
0.5415	-11.98425	-0.20142	-2.5177	10.17151	-3.92761
0.542	-13.797	7.15027	0.40283	9.56726	-5.94177
0.5425	-8.05664	-2.11487	-3.7262	9.36584	-1.10779
0.543	-0.60425	-4.53186	4.53186	-0.70496	-0.40283
0.5435	2.31628	-5.74036	4.12903	-6.74744	-0.70496
0.544	3.32336	-0.70496	0	2.5177	-0.80566
0.5445	-3.42407	-5.43823	-5.0354	-4.12903	-6.54602
0.545	5.43823	-1.71204	-6.64673	-2.71912	1.61133
0.5455	1.10779	-3.02124	0.20142	-1.51062	-4.22974
0.546	-5.23682	-4.43115	10.97717	2.41699	-0.10071
0.5465	-5.94177	-0.20142	6.3446	3.92761	1.61133
0.547	-4.73328	0.10071	1.00708	2.92053	3.22266
0.5475	-1.10779	4.12903	-5.53894	4.33044	-1.40991
0.548	-1.3092	-3.22266	-3.62549	15.00549	6.74744
0.5485	0.30212	-1.40991	-5.13611	8.05664	2.41699
0.549	-3.92761	1.10779	1.10779	-2.61841	-5.53894
0.5495	0.90637	-0.10071	2.81982	-2.5177	-0.50354
0.55	-7.35168	0.20142	0.40283	0.30212	-1.81274
0.5505	-4.43115	-2.11487	-0.10071	2.5177	-5.33752
0.551	-6.2439	-3.12195	2.31628	-4.12903	-0.10071
0.5515	-6.54602	-6.94885	-0.50354	-4.83398	-2.5177
0.552	-4.63257	-4.12903	-2.71912	-5.53894	-2.31628
0.5525	2.31628	-2.41699	1.00708	-12.18567	1.91345
0.553	-1.2085	0.70496	0.60425	-19.63806	9.66797
0.5535	-5.43823	-3.7262	0.50354	-9.66797	1.10779
0.554	-4.73328	1.61133	6.84814	13.49487	-10.87646
0.5545	0.70496	1.2085	4.43115	8.15735	-4.53186
0.555	0.20142	-1.71204	-0.40283	-5.43823	-6.14319
0.5555	-4.33044	-4.43115	-5.94177	1.2085	1.2085
0.556	-2.5177	-4.53186	-7.15027	-5.43823	-0.10071
0.5565	1.81274	-1.51062	-5.23682	-5.23682	-0.10071
0.557	-2.21558	-2.92053	-2.01416	1.10779	-3.42407
0.5575	-2.41699	-1.91345	6.44531	-2.5177	-1.51062
0.558	-2.71912	4.63257	6.74744	2.11487	-8.45947
0.5585	-1.51062	1.10779	1.61133	-2.81982	-3.02124
0.559	-9.66797	-1.10779	-7.5531	-4.43115	0.80566
0.5595	-3.32336	-2.92053	-7.5531	-8.05664	2.11487
0.56	-9.06372	-8.96301	-9.66797	-1.61133	3.92761
0.5605	-6.44531	-3.12195	-5.53894	2.81982	-2.31628
0.561	-9.66797	1.61133	6.54602	1.91345	-4.02832
0.5615	-8.7616	-1.61133	-1.81274	-0.50354	4.93469
0.562	-6.14319	-3.42407	-4.93469	1.40991	7.25098
0.5625	-1.81274	-9.97009	-2.41699	-4.22974	13.69629
0.563	-4.33044	-9.56726	-2.11487	-0.30212	12.38708
0.5635	-0.70496	-4.53186	-0.50354	0.90637	0.90637
0.564	-12.48779	-6.94885	3.32336	-5.63965	6.94885
0.5645	-5.94177	-5.63965	2.41699	-5.74036	9.36584
0.565	-0.80566	-2.31628	-4.33044	-10.67505	1.71204
0.5655	0.50354	1.00708	-3.7262	-4.63257	0.70496
0.566	1.3092	3.42407	-0.90637	-6.64673	-6.14319
0.5665	5.94177	-3.42407	-2.11487	-10.57434	-12.38708
0.567	5.53894	1.71204	5.13611	-6.74744	-13.797
0.5675	-7.75452	2.31628	11.78284	-10.27222	-5.53894
0.568	-2.01416	-1.91345	5.74036	-7.65381	-3.7262
0.5685	0	-9.56726	-6.94885	-14.30054	5.13611
0.569	8.35876	-9.46655	-11.2793	-11.98425	2.61841
0.5695	8.05664	-7.35168	-17.22107	-16.01257	-1.91345
0.57	4.53186	-6.84814	-12.68921	-7.85522	-0.90637
0.5705	-5.13611	-4.12903	-8.05664	10.97717	-7.95593
0.571	-4.12903	-0.40283	-2.11487	10.77576	-6.64673
0.5715	-1.51062	-0.30212	-5.84106	5.33752	-7.5531
0.572	-4.33044	-1.61133	-6.2439	20.94727	5.43823
0.5725	-1.61133	-5.13611	-10.27222	20.04089	5.84106
0.573	-4.43115	-2.81982	-8.56018	15.60974	2.71912
0.5735	-7.15027	-0.50354	-1.00708	10.17151	-5.23682
0.574	-12.78992	1.40991	6.04248	3.22266	-13.19275
0.5745	-0.60425	4.02832	2.01416	-1.91345	-2.01416
0.575	-6.64673	5.13611	-9.97009	-1.10779	-10.57434
0.5755	-6.14319	1.71204	0.70496	-1.3092	-13.29346
0.576	-11.58142	1.81274	-0.20142	11.2793	-4.83398
0.5765	-9.16443	-4.33044	0.90637	8.15735	-0.60425
0.577	-5.43823	-7.65381	-5.94177	6.2439	-1.00708
0.5775	-7.35168	-5.94177	-6.94885	2.81982	3.92761
0.578	-6.94885	-4.53186	-7.5531	-0.10071	1.3092
0.5785	-4.73328	-2.31628	-2.5177	-0.90637	-7.15027
0.579	-5.53894	-0.70496	2.31628	-6.84814	-8.7616
0.5795	-1.40991	1.3092	10.0708	2.61841	-5.43823
0.58	0.50354	2.5177	2.71912	0.10071	-5.74036
0.5805	-0.10071	-2.71912	2.71912	2.92053	-6.2439
0.581	3.42407	-5.74036	-3.12195	1.10779	-3.52478
0.5815	-6.54602	-1.81274	-11.78284	-6.2439	-0.20142
0.582	-5.23682	-2.21558	-2.71912	-12.68921	2.92053
0.5825	-0.70496	-0.60425	1.61133	-14.80408	-3.02124
0.583	0.40283	-10.87646	-0.40283	-0.90637	-5.74036
0.5835	-7.5531	-7.15027	5.33752	12.89062	-5.84106
0.584	-2.41699	-1.71204	2.31628	15.40833	-4.22974
0.5845	-3.32336	-7.85522	-4.93469	9.56726	3.42407
0.585	-5.23682	-8.15735	-3.52478	0.20142	-0.30212
0.5855	-5.13611	-0.10071	-5.94177	-9.06372	7.65381
0.586	-1.3092	-5.33752	-0.10071	-1.3092	7.45239
0.5865	2.5177	1.40991	-0.50354	10.47363	0.50354
0.587	-2.5177	-5.74036	-4.63257	-0.30212	5.53894
0.5875	-0.90637	-7.04956	-6.44531	4.83398	-0.30212
0.588	-8.05664	-5.94177	-1.10779	5.53894	0.40283
0.5885	-5.13611	-0.80566	3.32336	0	10.17151
0.589	-4.33044	0.20142	-4.73328	4.12903	-2.61841
0.5895	-3.92761	2.5177	-2.31628	-0.50354	-7.35168
0.59	2.11487	4.22974	7.75452	-7.35168	-10.37292
0.5905	-3.32336	0.30212	-5.33752	-14.19983	-0.50354
0.591	-2.81982	-1.10779	-11.07788	-21.45081	-2.01416
0.5915	-6.74744	0.60425	-0.10071	-7.95593	-6.04248
0.592	-6.74744	6.84814	6.2439	7.35168	-11.17859
0.5925	-6.3446	6.54602	15.50903	6.94885	-4.12903
0.593	0.50354	3.02124	5.53894	-1.61133	-4.22974
0.5935	-7.35168	-4.63257	4.83398	-5.33752	-3.22266
0.594	-3.92761	0.40283	2.92053	-7.75452	-2.71912
0.5945	4.83398	-3.22266	-4.43115	-11.78284	2.5177
0.595	-4.73328	0.90637	-5.94177	-13.19275	4.12903
0.5955	-0.30212	-4.53186	-5.94177	-1.61133	-0.60425
0.596	-8.66089	6.94885	5.53894	-0.40283	-11.58142
0.5965	-5.53894	-3.12195	-3.32336	8.35876	-10.17151
0.597	-2.71912	3.8269	2.31628	12.5885	-4.53186
0.5975	-0.10071	-0.20142	-10.17151	6.84814	6.14319
0.598	-2.21558	-0.10071	-21.45081	3.62549	-2.5177
0.5985	2.92053	-1.00708	4.33044	-1.10779	-1.51062
0.599	-0.20142	-2.5177	-0.40283	-4.73328	-5.0354
0.5995	1.81274	-12.78992	5.53894	1.81274	-3.62549
0.6	-1.3092	-9.76868	2.41699	-2.21558	-10.47363
0.6005	-7.85522	-2.01416	0.90637	-0.50354	-2.61841
0.601	-4.53186	-0.50354	-2.01416	-0.50354	-6.3446
0.6015	-0.90637	-0.20142	-4.12903	-6.94885	-4.53186
0.602	-0.80566	-1.3092	-1.2085	-7.75452	-7.95593
0.6025	-5.33752	-6.94885	-5.33752	-4.63257	2.11487
0.603	-6.14319	-9.06372	2.5177	-4.22974	-2.21558
0.6035	-7.25098	-3.02124	1.10779	-4.63257	-0.10071
0.604	-4.12903	1.10779	2.61841	8.56018	-7.15027
0.6045	-7.15027	0.10071	-0.50354	8.66089	-6.14319
0.605	-7.35168	-11.78284	-2.11487	4.12903	3.22266
0.6055	-4.63257	-6.2439	-5.84106	-3.7262	-1.61133
0.606	-3.7262	-11.78284	-3.7262	-10.87646	7.15027
0.6065	-1.51062	-3.22266	-3.12195	-12.68921	5.74036
0.607	-7.35168	-1.3092	-8.96301	3.8269	-3.7262
0.6075	-8.35876	2.31628	3.62549	19.94019	-2.92053
0.608	0.90637	-1.61133	-6.04248	10.67505	6.04248
0.6085	-1.91345	-7.75452	-7.35168	0.30212	4.83398
0.609	-3.12195	0.70496	5.33752	-10.87646	-0.20142
0.6095	-6.14319	5.13611	7.75452	-13.09204	-4.02832
0.61	-12.18567	6.14319	6.94885	-11.17859	-2.11487
0.6105	-6.3446	1.61133	-3.12195	-12.08496	-11.88354
0.611	0.90637	-3.7262	-8.66089	-6.54602	-4.73328
0.6115	-1.2085	-7.35168	-4.73328	-8.7616	-2.61841
0.612	-0.40283	-4.73328	-6.04248	6.04248	-13.49487
0.6125	-0.90637	1.2085	1.10779	23.06213	-13.69629
0.613	-6.74744	4.53186	-1.3092	10.37292	-8.35876
0.6135	-4.22974	1.40991	-0.20142	9.06372	-4.53186
0.614	-5.63965	-4.02832	4.43115	6.94885	-1.3092
0.6145	-1.71204	2.31628	0.80566	5.94177	-0.80566
0.615	-3.12195	-2.41699	-5.23682	-0.60425	-4.12903
0.6155	-0.30212	-0.70496	-13.19275	-3.22266	-0.60425
0.616	-1.51062	-7.95593	-6.44531	3.02124	1.10779
0.6165	1.2085	-5.63965	1.91345	-8.7616	-5.23682
0.617	-5.43823	-1.10779	8.05664	-23.36426	2.92053
0.6175	-6.64673	1.61133	14.19983	-21.65222	-3.22266
0.618	-7.04956	-4.43115	8.56018	-25.57983	1.3092
0.6185	-7.5531	-2.5177	8.35876	-34.84497	0.40283
0.619	-3.52478	-2.81982	3.52478	-25.88196	-0.80566
0.6195	-0.60425	-6.74744	-0.10071	-19.63806	4.53186
0.62	-2.01416	-9.16443	1.61133	-15.91187	4.22974
0.6205	-5.74036	-8.66089	-1.2085	-0.80566	7.85522
0.621	-9.16443	-9.16443	7.65381	15.40833	2.01416
0.6215	-11.98425	-8.15735	13.797	12.38708	-0.60425
0.622	-8.7616	-0.50354	16.91895	3.7262	1.61133
0.6225	-5.13611	0.10071	3.8269	-1.10779	2.11487
0.623	-2.11487	-2.41699	-4.12903	-5.0354	-8.56018
0.6235	-3.12195	-5.33752	-21.3501	4.83398	-6.64673
0.624	-1.3092	-1.71204	-38.06763	11.68213	-3.02124
0.6245	-4.12903	-3.52478	-26.98975	7.25098	-1.3092
0.625	-3.52478	1.51062	-8.25806	3.92761	-4.53186
0.6255	-4.12903	2.92053	-9.56726	3.7262	-7.35168
0.626	1.10779	0.50354	-10.47363	2.11487	-0.40283
0.6265	-5.74036	-1.91345	-15.30762	5.33752	0.10071
0.627	-4.33044	-5.63965	-6.3446	-1.51062	2.21558
0.6275	-3.02124	4.33044	-1.81274	-5.43823	-3.52478
0.628	2.61841	5.0354	1.3092	-4.63257	-2.71912
0.6285	-0.20142	7.15027	-13.797	-8.96301	6.14319
0.629	2.41699	-4.33044	-16.51611	-15.00549	16.41541
0.6295	1.00708	-5.23682	-9.97009	-1.61133	5.0354
0.63	-7.04956	-1.51062	4.73328	0.20142	2.71912
0.6305	-4.02832	-0.70496	5.74036	-3.52478	-1.10779
0.631	-5.74036	-4.02832	1.61133	-8.96301	6.44531
0.6315	0.70496	-5.23682	-1.2085	-17.42249	-0.50354
0.632	-5.84106	-7.5531	-5.43823	-10.57434	4.22974
0.6325	-2.31628	-4.83398	-4.02832	15.71045	-1.2085
0.633	-4.73328	0	-4.12903	23.8678	2.11487
0.6335	-3.52478	2.11487	0.60425	8.05664	8.05664
0.634	-0.30212	2.31628	2.21558	-7.35168	-0.50354
0.6345	-6.3446	3.7262	5.33752	-2.11487	-7.5531
0.635	-0.90637	1.00708	4.93469	9.97009	-12.99133
0.6355	-3.42407	-5.63965	0.30212	-2.01416	-0.60425
0.636	-6.14319	-4.22974	-2.61841	-1.51062	-1.10779
0.6365	-1.40991	1.00708	-2.92053	0.30212	-3.52478
0.637	-7.35168	1.10779	0.90637	-7.35168	-7.95593
0.6375	-1.81274	1.3092	8.7616	-7.75452	-6.3446
0.638	0.40283	-4.22974	0	-4.63257	-6.04248
0.6385	-5.53894	-5.23682	-5.74036	-7.75452	1.10779
0.639	-6.3446	-3.02124	-2.5177	-3.12195	1.10779
0.6395	-2.61841	-4.02832	1.10779	3.52478	-1.2085
0.64	-5.53894	-3.8269	-2.61841	7.45239	-0.60425
0.6405	3.8269	-3.92761	-6.3446	2.5177	1.81274
0.641	-2.31628	-2.5177	-11.98425	-1.91345	0.50354
0.6415	1.81274	-4.63257	-4.02832	1.00708	3.32336
0.642	-5.53894	0.10071	-0.10071	-2.81982	-6.54602
0.6425	-4.73328	-2.21558	0.70496	6.54602	-6.74744
0.643	-2.5177	-2.11487	2.11487	4.12903	-3.8269
0.6435	-10.17151	-1.3092	-1.2085	-1.91345	-2.5177
0.644	-5.23682	0.10071	-6.54602	2.11487	-1.00708
0.6445	-5.63965	-2.31628	-8.96301	-4.63257	2.31628
0.645	-4.73328	-4.93469	-6.3446	1.10779	-0.10071
0.6455	-4.22974	-2.41699	12.38708	18.42957	-0.10071
0.646	-1.91345	-2.71912	4.33044	12.78992	3.8269
0.6465	-4.63257	-8.96301	0.60425	4.83398	7.95593
0.647	-6.2439	-3.92761	-3.52478	3.8269	3.92761
0.6475	-1.71204	-6.14319	-11.98425	-0.70496	-0.90637
0.648	-6.14319	-2.71912	1.61133	-7.15027	3.02124
0.6485	3.32336	-5.33752	2.31628	-2.92053	-0.90637
0.649	-0.30212	-5.63965	7.65381	-2.31628	0.70496
0.6495	-1.51062	-0.80566	2.21558	-4.22974	-3.42407
0.65	-12.38708	-5.13611	-1.2085	0.10071	6.54602
0.6505	-13.29346	0.50354	-3.32336	2.92053	-1.10779
0.651	-18.22815	4.53186	2.31628	-1.51062	-6.14319
0.6515	-18.32886	-0.10071	10.0708	-0.60425	-5.74036
0.652	-11.88354	-1.51062	8.56018	-9.16443	-2.92053
0.6525	-2.71912	-7.45239	6.14319	-14.30054	-2.21558
0.653	3.7262	-6.74744	-1.3092	-14.80408	-5.94177
0.6535	-1.81274	-2.81982	4.22974	-15.81116	0.90637
0.654	-2.81982	-4.33044	-0.40283	-18.63098	0.10071
0.6545	-3.12195	-0.40283	-1.71204	-18.12744	-0.10071
0.655	2.92053	-2.41699	5.33752	-6.04248	-0.10071
0.6555	-2.01416	-3.12195	9.97009	-10.17151	-0.90637
0.656	-5.33752	-5.33752	1.10779	-2.5177	0.70496
0.6565	-6.2439	-5.23682	5.0354	-9.36584	4.53186
0.657	-7.75452	2.01416	8.7616	-7.85522	0.30212
0.6575	-8.35876	-4.73328	-0.40283	-2.71912	-1.51062
0.658	-3.52478	-0.50354	6.74744	11.98425	-10.67505
0.6585	-9.46655	-6.2439	4.93469	18.32886	2.71912
0.659	-10.0708	-4.12903	12.5885	19.23523	-0.10071
0.6595	-7.04956	0.70496	12.5885	9.76868	-2.71912
0.66	-3.7262	-3.12195	-4.33044	10.67505	-3.7262
0.6605	-5.13611	2.61841	-7.35168	2.81982	-2.5177
0.661	-5.43823	-3.62549	-6.04248	8.35876	-1.71204
0.6615	-4.12903	0.30212	-7.5531	4.83398	-9.56726
0.662	0.20142	0.60425	-15.60974	9.46655	-10.57434
0.6625	-4.53186	-7.35168	-15.60974	17.12036	-14.09912
0.663	3.32336	5.0354	-8.15735	5.53894	-4.43115
0.6635	3.62549	2.31628	-4.63257	-2.11487	4.33044
0.664	-0.50354	-2.41699	2.01416	-6.54602	9.46655
0.6645	-3.7262	1.00708	0.30212	-12.08496	2.71912
0.665	-1.00708	-3.42407	-1.40991	-13.69629	9.16443
0.6655	-2.81982	-6.04248	-1.10779	-7.15027	9.66797
0.666	-7.75452	-3.92761	-0.30212	-8.96301	-2.41699
0.6665	-12.38708	-3.42407	6.84814	5.33752	8.05664
0.667	-0.60425	-2.5177	8.56018	2.31628	0
0.6675	-3.52478	-0.80566	4.12903	-4.73328	2.61841
0.668	0.90637	-1.3092	-1.40991	-7.35168	5.23682
0.6685	-0.90637	3.92761	-0.10071	-11.58142	-2.5177
0.669	2.11487	-7.35168	-5.74036	-10.77576	-2.11487
0.6695	-4.53186	-5.13611	-8.7616	-9.36584	4.02832
0.67	4.83398	2.11487	-7.85522	-3.02124	1.91345
0.6705	-3.02124	4.93469	0.20142	-4.02832	-7.35168
0.671	-1.40991	-3.7262	-3.52478	-3.02124	-7.65381
0.6715	-3.7262	3.62549	-0.10071	-4.33044	-1.61133
0.672	-8.35876	-5.94177	2.11487	-1.40991	-5.13611
0.6725	-7.15027	-11.2793	-1.2085	-0.80566	-0.90637
0.673	-1.40991	-7.35168	-1.91345	0.20142	4.33044
0.6735	-5.0354	-3.62549	-5.63965	-4.43115	4.33044
0.674	-3.22266	-7.85522	-2.71912	-9.26514	11.07788
0.6745	-11.38	-12.38708	-2.11487	-2.71912	2.01416
0.675	-1.91345	-2.81982	-5.33752	-5.63965	-0.60425
0.6755	-4.83398	-0.80566	-5.33752	7.45239	-6.54602
0.676	4.53186	-0.10071	-11.68213	5.84106	-12.18567
0.6765	8.35876	2.5177	-17.01965	-5.13611	-0.90637
0.677	12.38708	0.90637	-15.30762	-9.36584	-9.36584
0.6775	-2.81982	-0.90637	-5.23682	1.10779	-12.78992
0.678	5.74036	2.01416	-4.73328	3.02124	-0.20142
0.6785	-10.77576	-1.00708	-2.61841	-0.30212	8.05664
0.679	-13.29346	-0.10071	0.10071	-4.53186	2.31628
0.6795	-11.68213	-0.10071	9.26514	-2.21558	0.80566
0.68	-10.57434	-0.50354	6.2439	-0.50354	3.02124
0.6805	-4.53186	-1.91345	-0.60425	-4.22974	2.81982
0.681	-1.61133	-2.41699	1.71204	-8.96301	-1.10779
0.6815	-2.31628	-2.11487	0.50354	-15.91187	2.31628
0.682	-3.02124	-3.7262	3.8269	-15.1062	-7.25098
0.6825	-2.61841	1.10779	0.10071	-2.11487	-11.58142
0.683	-2.81982	5.63965	-3.32336	10.87646	-7.95593
0.6835	0.30212	2.61841	-4.02832	14.30054	-4.63257
0.684	-5.0354	0.90637	-0.60425	16.61682	-6.2439
0.6845	-4.12903	-2.11487	5.43823	8.96301	-5.74036
0.685	0.60425	-0.80566	0.30212	5.74036	-3.52478
0.6855	4.02832	-5.13611	-7.15027	-5.33752	-0.10071
0.686	2.21558	2.11487	-5.43823	-10.67505	-7.15027
0.6865	-7.5531	2.92053	4.33044	-7.5531	-9.46655
0.687	-8.25806	4.12903	10.37292	3.52478	-7.75452
0.6875	-15.40833	-4.83398	8.35876	1.81274	-5.13611
0.688	-10.97717	-3.22266	1.10779	-2.81982	0.40283
0.6885	5.33752	-2.5177	5.13611	-5.23682	-2.71912
0.689	-0.90637	-8.25806	8.15735	-10.57434	0.10071
0.6895	-4.33044	-2.92053	6.74744	-11.07788	-0.20142
0.69	-8.7616	-1.91345	11.78284	-16.61682	-0.90637
0.6905	-3.02124	0.30212	7.15027	-16.41541	-5.74036
0.691	1.3092	-8.15735	11.17859	-1.10779	-9.16443
0.6915	0.80566	-1.71204	14.60266	19.63806	-0.10071
0.692	-4.33044	2.71912	3.12195	8.35876	0.90637
0.6925	-3.32336	-1.10779	-1.3092	-7.95593	10.17151
0.693	-0.70496	-0.30212	5.23682	-9.76868	7.04956
0.6935	2.11487	3.02124	6.2439	-15.20691	2.92053
0.694	-6.3446	-2.92053	2.11487	-15.20691	7.85522
0.6945	0.40283	-11.2793	-5.84106	-29.20532	10.77576
0.695	-2.92053	-8.8623	-12.99133	-30.61523	4.93469
0.6955	-0.50354	-7.35168	-29.40674	-15.91187	-2.71912
0.696	-0.50354	-8.7616	-22.35718	13.59558	-9.16443
0.6965	-4.22974	-5.74036	-5.23682	31.4209	-2.71912
0.697	0.90637	-8.56018	-0.60425	21.65222	-1.00708
0.6975	-5.84106	7.95593	1.91345	3.62549	-0.30212
0.698	-10.37292	-4.02832	2.92053	-1.71204	-2.92053
0.6985	-6.84814	-1.2085	-1.3092	5.74036	-0.50354
0.699	-7.25098	-8.35876	0.80566	15.91187	0
0.6995	-7.35168	-12.28638	-7.04956	11.88354	-0.10071
0.7	2.61841	-10.97717	-4.33044	9.97009	4.93469
0.7005	-2.31628	-6.74744	-13.49487	13.49487	0.60425
0.701	-2.92053	-9.46655	-5.53894	11.88354	5.63965
0.7015	-2.81982	-12.38708	0.10071	9.36584	-2.21558
0.702	-7.95593	-6.2439	-0.30212	8.7616	0.20142
0.7025	-14.70337	-9.86938	7.25098	3.62549	2.71912
0.703	-9.76868	-8.05664	3.7262	-0.10071	3.42407
0.7035	-8.7616	-0.50354	4.22974	-6.94885	0.30212
0.704	-0.30212	-2.11487	8.25806	-7.65381	-3.12195
0.7045	7.35168	-0.10071	7.5531	-9.97009	-4.33044
0.705	6.04248	5.84106	-3.7262	-12.28638	-0.70496
0.7055	5.13611	10.27222	-1.40991	-13.797	-6.2439
0.706	0.50354	7.5531	-3.12195	-5.33752	-8.7616
0.7065	-4.53186	6.14319	3.8269	4.33044	-5.33752
0.707	-5.33752	3.42407	5.63965	-9.06372	-0.90637
0.7075	1.3092	-9.16443	-1.40991	-15.00549	12.68921
0.708	-4.93469	-7.75452	2.61841	-5.53894	1.40991
0.7085	-7.04956	-2.71912	5.13611	4.43115	1.91345
0.709	-3.12195	-5.53894	-4.53186	0.70496	-14.70337
0.7095	-1.10779	1.81274	-9.86938	-0.30212	-5.33752
0.71	-3.12195	9.46655	-4.53186	6.14319	-19.94019
0.7105	-3.52478	9.46655	4.02832	13.59558	-12.68921
0.711	5.84106	1.51062	5.33752	6.04248	-5.0354
0.7115	0.10071	0.80566	-9.56726	7.35168	2.01416
0.712	0.40283	0.40283	-9.16443	-8.25806	8.25806
0.7125	-2.5177	-7.25098	-8.7616	-5.94177	-0.10071
0.713	4.02832	-3.7262	-6.64673	-7.35168	8.35876
0.7135	0	-17.01965	-4.43115	-6.74744	3.62549
0.714	-5.74036	-4.12903	-3.7262	-0.10071	-2.61841
0.7145	-5.43823	2.11487	0.10071	1.3092	-5.74036
0.715	2.31628	-0.70496	1.10779	10.87646	-7.75452
0.7155	-5.53894	-0.30212	-9.06372	11.07788	1.10779
0.716	-1.91345	2.81982	-3.32336	0.10071	0.40283
0.7165	-2.92053	3.7262	-9.36584	-5.74036	4.73328
0.717	5.33752	-11.98425	-3.12195	-9.46655	5.53894
0.7175	1.51062	0.10071	-7.35168	-11.2793	-4.73328
0.718	-5.84106	-1.61133	-10.77576	-8.96301	-5.0354
0.7185	-5.33752	3.22266	-13.19275	-11.07788	-2.71912
0.719	-2.01416	-6.54602	-12.5885	-14.80408	1.91345
0.7195	-8.96301	-5.33752	-3.12195	-14.90479	0.90637
0.72	-2.11487	-1.3092	0.50354	-20.04089	2.5177
0.7205	-5.43823	-0.10071	2.21558	-30.11169	-0.70496
0.721	-10.47363	-0.70496	5.13611	-22.45789	2.11487
0.7215	-12.89062	7.04956	2.11487	5.53894	-8.35876
0.722	-10.57434	2.92053	5.23682	16.41541	-0.80566
0.7225	-12.48779	-5.94177	5.23682	0.90637	-8.35876
0.723	-8.66089	-6.94885	1.40991	-0.40283	-3.12195
0.7235	-9.26514	-6.3446	-1.40991	3.52478	3.42407
0.724	-8.96301	-11.78284	0.60425	6.64673	-5.33752
0.7245	-6.74744	-12.5885	-8.56018	13.39417	-6.3446
0.725	-2.5177	-8.7616	-1.40991	18.02673	-4.73328
0.7255	10.57434	4.93469	7.95593	15.00549	-0.60425
0.726	-1.91345	2.81982	5.94177	19.63806	-5.43823
0.7265	-4.93469	3.62549	-0.10071	31.4209	-7.35168
0.727	-7.5531	5.13611	-3.92761	38.87329	-9.06372
0.7275	-5.84106	4.83398	-7.5531	31.01807	-5.74036
0.728	-10.67505	1.61133	-0.90637	3.52478	-0.90637
0.7285	-2.31628	3.52478	6.74744	-13.797	-0.10071
0.729	1.3092	-1.10779	4.22974	-21.85364	1.2085
0.7295	-1.00708	-0.20142	0	-8.8623	-13.29346
0.73	4.22974	-0.50354	1.71204	4.93469	-9.66797
0.7305	-3.62549	-11.88354	-3.92761	1.91345	-0.10071
0.731	1.40991	-6.84814	-3.92761	-11.58142	7.15027
0.7315	-1.91345	-1.3092	-1.10779	-8.15735	2.01416
0.732	-1.10779	-8.96301	-0.90637	-3.12195	-3.42407
0.7325	-6.3446	-2.01416	2.11487	16.3147	0.70496
0.733	-7.25098	0.10071	-2.71912	25.07629	2.61841
0.7335	-7.35168	-7.15027	-4.53186	22.45789	3.42407
0.734	-2.71912	-6.54602	-2.21558	11.58142	-1.00708
0.7345	-5.33752	-3.12195	0.40283	11.88354	-5.13611
0.735	-13.19275	-1.51062	1.81274	10.77576	-6.94885
0.7355	-6.94885	1.91345	2.11487	15.00549	-2.21558
0.736	4.53186	-4.73328	1.2085	-14.90479	1.40991
0.7365	0.90637	-6.94885	-3.42407	-27.6947	-0.80566
0.737	1.00708	-4.63257	-5.74036	-32.7301	1.3092
0.7375	-4.63257	-3.7262	3.32336	-23.46497	4.53186
0.738	-2.71912	1.61133	3.42407	-7.85522	-1.10779
0.7385	-10.17151	-2.61841	5.53894	-2.21558	0.30212
0.739	-9.36584	-2.92053	7.5531	2.11487	1.00708
0.7395	-3.02124	-1.10779	4.53186	-0.10071	-1.00708
0.74	-7.45239	-9.46655	-4.12903	0.30212	-5.13611
0.7405	-5.0354	-2.21558	-8.56018	-1.2085	-1.2085
0.741	-8.25806	-2.92053	-2.41699	-4.93469	-2.92053
0.7415	1.61133	-4.53186	-2.5177	2.92053	-2.5177
0.742	4.53186	-2.01416	-5.43823	7.5531	0.60425
0.7425	5.53894	-3.42407	-6.74744	9.06372	3.62549
0.743	-3.52478	-8.25806	-8.05664	-0.90637	0.90637
0.7435	-3.12195	1.3092	1.40991	-10.77576	3.22266
0.744	-3.02124	-3.7262	0.40283	-22.76001	4.83398
0.7445	-0.60425	-2.41699	5.53894	-18.12744	1.3092
0.745	-2.92053	0.30212	3.52478	-5.23682	-10.57434
0.7455	-0.90637	1.71204	-2.21558	0.90637	-5.33752
0.746	-3.62549	-7.04956	-2.5177	-3.32336	5.53894
0.7465	-4.83398	-4.63257	-12.68921	-1.81274	8.15735
0.747	-2.92053	-2.5177	-9.26514	-1.10779	4.53186
0.7475	-7.85522	1.61133	-0.60425	5.0354	5.0354
0.748	-5.63965	-0.70496	2.71912	-4.73328	1.00708
0.7485	-3.7262	-1.10779	13.19275	0.10071	-2.5177
0.749	-1.81274	-4.63257	0.70496	-2.21558	-1.51062
0.7495	-3.52478	-0.10071	4.12903	-1.71204	-4.93469
0.75	-6.14319	-4.22974	2.11487	-7.35168	0.20142
0.7505	-2.61841	-5.33752	1.3092	-7.75452	-3.02124
0.751	-7.35168	-3.32336	6.54602	-7.85522	-1.10779
0.7515	0.40283	1.3092	1.61133	-7.25098	-2.92053
0.752	-0.80566	-3.8269	1.81274	-8.66089	-3.62549
0.7525	-4.73328	-2.71912	-3.12195	-4.73328	-0.50354
0.753	-3.52478	-3.12195	-4.83398	-15.81116	4.33044
0.7535	2.41699	-7.04956	-9.46655	-16.81824	5.13611
0.754	3.42407	-6.64673	-5.84106	-9.16443	-1.51062
0.7545	-4.22974	-2.81982	0.50354	0.70496	-9.46655
0.755	1.10779	0.10071	7.45239	0.70496	-5.13611
0.7555	-6.14319	-0.60425	-0.10071	-5.23682	-0.10071
0.756	-5.84106	-7.15027	-1.51062	-12.18567	-0.60425
0.7565	-1.3092	-5.74036	3.22266	-15.40833	-3.42407
0.757	-9.06372	-1.51062	7.85522	-19.94019	-5.53894
0.7575	-12.28638	-7.5531	2.71912	-16.81824	-1.91345
0.758	-9.66797	-2.5177	1.71204	-22.6593	-5.13611
0.7585	-9.86938	8.96301	6.54602	-14.09912	-14.90479
0.759	-5.13611	5.74036	3.42407	-5.74036	-1.61133
0.7595	-0.10071	0.50354	-16.3147	-23.56567	4.43115
0.76	7.35168	0.80566	-19.73877	-31.32019	3.8269
0.7605	4.53186	-0.10071	-9.26514	-22.76001	-2.11487
0.761	-1.10779	0.50354	1.71204	-9.86938	-15.50903
0.7615	-7.65381	4.02832	16.61682	-1.71204	-6.74744
0.762	2.41699	3.52478	13.39417	0.30212	-11.2793
0.7625	5.74036	-5.74036	6.64673	15.81116	2.5177
0.763	1.71204	-11.2793	0.70496	38.77258	3.32336
0.7635	7.35168	-7.35168	5.13611	40.38391	3.02124
0.764	-6.94885	-7.15027	8.25806	14.90479	-3.12195
0.7645	-3.62549	-4.02832	6.3446	2.21558	3.62549
0.765	0.70496	-4.12903	3.62549	-1.71204	-0.40283
0.7655	1.10779	-3.52478	1.40991	3.22266	-1.2085
0.766	-2.11487	-3.8269	-7.45239	22.45789	-7.5531
0.7665	-2.21558	-5.0354	-9.86938	25.88196	-7.45239
0.767	-5.43823	-2.21558	-5.63965	7.15027	3.52478
0.7675	-3.62549	-3.52478	-8.66089	-0.50354	6.44531
0.768	-3.22266	-1.51062	-20.1416	-5.53894	7.95593
0.7685	-2.92053	-6.04248	-1.81274	2.11487	-2.5177
0.769	-10.37292	0.20142	-4.12903	-2.01416	-2.41699
0.7695	-5.94177	4.83398	2.21558	2.41699	-3.12195
0.77	-6.74744	2.5177	1.51062	9.16443	-0.10071
0.7705	-0.40283	-5.23682	-0.30212	9.76868	-1.3092
0.771	-0.30212	-12.78992	-2.71912	10.37292	-2.81982
0.7715	-7.65381	-3.7262	-2.41699	21.14868	-8.35876
0.772	-10.97717	1.3092	-2.01416	24.06921	-1.51062
0.7725	-14.60266	8.25806	-1.91345	11.88354	1.91345
0.773	-9.36584	4.73328	-3.92761	0.70496	-2.5177
0.7735	-11.78284	4.12903	1.3092	-9.36584	4.12903
0.774	-6.94885	-3.02124	-0.50354	-12.68921	-1.51062
0.7745	-3.02124	-1.40991	3.02124	-10.37292	-6.54602
0.775	-7.45239	-5.94177	-2.71912	-16.01257	1.00708
0.7755	-1.10779	-5.13611	-0.30212	-31.72302	-4.63257
0.776	1.10779	-6.44531	1.71204	-31.01807	-16.51611
0.7765	7.75452	-6.64673	1.10779	-33.23364	-7.65381
0.777	5.53894	-8.7616	-15.50903	-52.46887	6.04248
0.7775	-0.10071	-0.90637	-5.94177	-50.85754	-9.26514
0.778	-4.12903	10.27222	13.19275	-13.89771	-25.57983
0.7785	-11.78284	4.53186	13.59558	17.6239	-12.89062
0.779	-3.02124	5.94177	9.36584	1.40991	-5.94177
0.7795	-3.52478	-7.5531	8.25806	-7.25098	-2.5177
0.78	1.71204	-3.8269	8.35876	-3.8269	-4.83398
0.7805	-4.73328	-7.5531	-2.81982	-3.92761	3.92761
0.781	-5.74036	-5.74036	-11.78284	-6.54602	10.57434
0.7815	-0.30212	-7.95593	-6.04248	-21.65222	10.97717
0.782	-2.71912	-9.36584	-12.48779	-2.31628	7.75452
0.7825	-8.35876	-4.93469	0.10071	43.40515	2.92053
0.783	-4.53186	-6.74744	4.93469	59.01489	1.3092
0.7835	-7.25098	-4.93469	6.94885	34.14001	0.60425
0.784	-7.35168	-3.52478	0.30212	10.17151	7.15027
0.7845	-13.39417	-2.61841	1.10779	-5.0354	5.43823
0.785	-7.15027	-0.90637	-1.91345	1.10779	-2.5177
0.7855	-6.74744	-2.81982	1.91345	12.08496	1.61133
0.786	-3.7262	-2.41699	4.93469	36.05347	2.31628
0.7865	-4.22974	-0.90637	-0.30212	26.88904	7.04956
0.787	1.61133	-2.92053	-2.71912	28.39966	4.12903
0.7875	-5.13611	-2.11487	-4.12903	14.80408	4.93469
0.788	1.81274	-3.52478	-7.15027	-4.33044	8.35876
0.7885	-2.81982	1.3092	0.20142	-1.51062	1.10779
0.789	-0.10071	2.61841	-5.63965	-1.51062	2.71912
0.7895	-3.8269	4.93469	-0.10071	1.3092	-2.31628
0.79	-1.71204	3.12195	-5.74036	1.81274	3.62549
0.7905	-0.50354	3.42407	-12.18567	-0.20142	3.52478
0.791	-1.71204	4.33044	-12.99133	-2.11487	8.8623
0.7915	3.22266	-0.70496	-5.63965	-2.71912	7.04956
0.792	-2.21558	-2.21558	1.2085	-7.25098	-2.11487
0.7925	1.10779	-0.10071	-3.12195	-6.94885	-7.35168
0.793	-2.21558	4.33044	-24.57275	-2.01416	0.70496
0.7935	-5.13611	6.14319	-34.74426	-2.31628	2.11487
0.794	-10.77576	1.61133	-20.64514	-0.70496	-12.78992
0.7945	-7.75452	0.40283	-15.00549	-3.7262	0.90637
0.795	-7.75452	-7.75452	-12.5885	-7.85522	3.92761
0.7955	-5.0354	0.10071	-7.04956	-14.19983	-3.52478
0.796	-9.97009	-1.3092	-6.04248	-22.86072	-10.57434
0.7965	-5.53894	-4.63257	-6.64673	-22.76001	-0.60425
0.797	-12.18567	-0.90637	-7.75452	-12.48779	8.05664
0.7975	-5.53894	-12.38708	-2.71912	-4.53186	-0.70496
0.798	-6.54602	-9.46655	4.12903	2.31628	3.7262
0.7985	-15.20691	-11.07788	16.91895	3.7262	4.22974
0.799	-9.97009	-10.0708	32.83081	1.81274	5.53894
0.7995	-1.3092	-10.87646	35.65063	-0.40283	2.31628
0.8	-11.38	-2.71912	40.98816	17.82532	-2.81982
0.8005	-20.04089	-8.35876	49.34692	49.64905	-7.85522
0.801	-8.35876	-2.5177	44.31152	45.62073	-7.65381
0.8015	0.50354	-3.22266	31.11877	17.52319	1.71204
0.802	6.84814	-2.5177	13.09204	7.85522	10.27222
0.8025	6.04248	-0.50354	10.17151	4.33044	-4.53186
0.803	2.11487	-8.25806	1.71204	15.60974	-20.94727
0.8035	2.92053	-2.92053	-11.07788	2.61841	-22.05505
0.804	6.44531	-0.30212	-16.61682	-6.14319	-14.80408
0.8045	-0.10071	3.92761	-26.88904	13.99841	-19.33594
0.805	6.2439	5.53894	-28.9032	38.67188	-14.60266
0.8055	4.33044	4.22974	-24.16992	35.85205	0
0.806	8.66089	-0.90637	-27.6947	-4.63257	20.04089
0.8065	2.21558	-0.90637	-30.11169	-44.61365	21.24939
0.807	-0.90637	-3.52478	-16.41541	-29.60815	16.21399
0.8075	-4.53186	3.42407	-12.5885	-5.33752	6.14319
0.808	-0.70496	-4.12903	-9.16443	8.35876	0.30212
0.8085	2.5177	-3.7262	-8.35876	7.04956	-6.44531
0.809	-4.93469	-1.71204	-6.14319	3.92761	-7.75452
0.8095	-5.43823	-4.73328	-11.78284	3.32336	-4.73328
0.81	-4.53186	-1.61133	-13.59558	4.53186	-3.92761
0.8105	-7.35168	-6.54602	-6.54602	-11.58142	-10.77576
0.811	-3.42407	-3.62549	-0.50354	-28.60107	-10.77576
0.8115	-6.74744	-5.84106	-1.3092	-24.47205	-11.58142
0.812	-4.43115	2.92053	4.93469	-10.67505	-6.2439
0.8125	-5.13611	-3.12195	4.12903	-3.02124	-6.54602
0.813	-5.13611	0	-2.61841	-0.30212	-4.93469
0.8135	0.10071	3.92761	-1.10779	-6.94885	-0.30212
0.814	2.11487	3.22266	-4.63257	-0.70496	-1.2085
0.8145	3.32336	1.3092	-5.43823	7.25098	-3.12195
0.815	4.12903	-1.51062	-5.43823	4.43115	4.43115
0.8155	4.93469	-7.25098	-15.20691	6.14319	10.67505
0.816	0.70496	-7.85522	-15.81116	-2.11487	2.71912
0.8165	-2.71912	-1.91345	-13.59558	-13.797	6.14319
0.817	-0.10071	-1.71204	-8.35876	-19.03381	3.42407
0.8175	-4.12903	-1.40991	-10.57434	-19.33594	-4.93469
0.818	0.10071	-1.61133	-5.84106	-15.20691	-0.10071
0.8185	0.30212	2.11487	-3.22266	-8.35876	7.15027
0.819	1.00708	-0.30212	-9.86938	-20.44373	5.0354
0.8195	0.50354	-0.30212	-13.49487	-17.82532	-0.10071
0.82	0.90637	-9.86938	-2.21558	-23.96851	-7.75452
0.8205	-0.50354	-10.37292	0.10071	-29.91028	-4.83398
0.821	0.20142	-9.26514	-5.74036	-25.177	-1.91345
0.8215	-2.11487	-3.52478	-1.10779	-9.86938	-2.11487
0.822	-8.56018	-0.70496	14.19983	-2.61841	0.10071
0.8225	-14.90479	-2.11487	6.94885	-4.63257	4.02832
0.823	-15.1062	-5.13611	0.30212	-9.56726	3.52478
0.8235	-12.78992	3.92761	0.50354	-16.81824	2.21558
0.824	-8.45947	-7.35168	-8.05664	5.23682	-0.90637
0.8245	-6.64673	-1.91345	-10.47363	28.50037	-3.42407
0.825	-6.74744	3.32336	-9.36584	15.30762	1.00708
0.8255	-5.53894	-3.7262	-7.15027	15.40833	-6.54602
0.826	-5.43823	11.07788	-9.16443	13.29346	-14.50195
0.8265	-0.20142	1.81274	-2.11487	11.17859	-1.00708
0.827	1.81274	-2.92053	1.40991	7.5531	4.33044
0.8275	1.10779	-1.51062	8.56018	-0.70496	0.50354
0.828	-2.31628	1.00708	10.87646	-9.36584	0.30212
0.8285	2.41699	-9.16443	5.13611	-8.7616	0.70496
0.829	1.3092	-0.10071	3.8269	-3.42407	2.11487
0.8295	0.40283	1.91345	-2.31628	-8.35876	6.64673
0.83	-10.87646	-2.81982	-0.30212	-6.74744	-0.80566
0.8305	-11.58142	-1.81274	-2.5177	3.62549	1.71204
0.831	-9.86938	1.51062	-5.74036	8.35876	-4.22974
0.8315	-3.32336	2.92053	-5.0354	11.17859	-2.5177
0.832	-0.90637	-0.20142	-7.5531	-0.10071	4.43115
0.8325	2.71912	4.12903	-3.52478	-2.81982	2.71912
0.833	0	2.71912	-0.90637	-3.62549	-6.14319
0.8335	-1.00708	-4.83398	0.40283	2.92053	-1.2085
0.834	-5.43823	-5.33752	0	5.33752	-2.11487
0.8345	-6.94885	2.11487	0.30212	-0.70496	-0.20142
0.835	-8.96301	-0.30212	5.53894	-7.45239	-4.63257
0.8355	-8.15735	-6.94885	3.22266	2.41699	-1.10779
0.836	-6.54602	-9.86938	3.62549	7.15027	-7.5531
0.8365	-1.40991	-10.97717	-0.50354	10.77576	-1.3092
0.837	-0.10071	-7.65381	-8.96301	9.76868	-3.92761
0.8375	0.10071	-0.30212	-3.42407	0.90637	-5.74036
0.838	-1.81274	-6.94885	-0.10071	-7.35168	-4.83398
0.8385	-7.35168	-9.06372	6.74744	-22.35718	-9.06372
0.839	-5.74036	-2.11487	18.8324	-21.04797	-4.73328
0.8395	-1.10779	-7.25098	19.03381	-6.04248	5.53894
0.84	2.21558	-10.97717	17.22107	-5.13611	-1.00708
0.8405	-4.43115	-8.56018	6.44531	-10.67505	-6.84814
0.841	-2.21558	-3.32336	-0.20142	-7.95593	-2.31628
0.8415	-9.66797	8.45947	12.08496	-5.23682	-3.7262
0.842	-7.15027	6.84814	6.14319	1.91345	-4.12903
0.8425	-7.15027	4.73328	-2.81982	3.92761	-3.12195
0.843	-3.02124	-4.33044	-16.01257	-0.10071	1.51062
0.8435	0.20142	-6.94885	-12.38708	-3.32336	4.83398
0.844	-0.60425	-8.35876	-15.1062	1.61133	-0.10071
0.8445	-1.51062	-3.42407	-8.35876	12.08496	2.5177
0.845	0.20142	1.10779	-3.42407	15.20691	-1.2085
0.8455	-3.22266	-0.90637	2.31628	11.48071	-1.91345
0.846	-6.14319	-6.14319	0.90637	-2.61841	-1.81274
0.8465	-5.74036	-5.43823	-5.43823	-4.63257	6.94885
0.847	-2.01416	-1.91345	-8.25806	-9.36584	5.33752
0.8475	-5.84106	-3.32336	-4.43115	-4.43115	1.3092
0.848	-2.21558	2.31628	5.63965	1.00708	1.71204
0.8485	-9.46655	-1.91345	10.17151	-4.93469	2.11487
0.849	-6.94885	-5.13611	5.13611	-7.65381	1.10779
0.8495	-4.33044	-3.22266	-6.74744	-17.22107	-0.70496
0.85	-12.18567	-4.63257	-9.76868	-2.31628	-12.78992
0.8505	-6.14319	-1.2085	-9.56726	-6.14319	-0.10071
0.851	-5.13611	-3.52478	-11.98425	-10.17151	0.70496
0.8515	3.92761	-3.32336	-3.8269	-13.19275	2.11487
0.852	1.81274	-2.31628	8.05664	-20.54443	-1.51062
0.8525	2.5177	-5.33752	8.45947	-18.02673	6.2439
0.853	-4.22974	-2.21558	-1.71204	-5.84106	8.7616
0.8535	-4.93469	-3.52478	-1.81274	-14.30054	1.61133
0.854	-6.3446	-7.75452	2.61841	-24.06921	-2.71912
0.8545	-7.04956	-4.12903	9.36584	-11.17859	3.22266
0.855	-9.56726	-8.96301	-4.53186	-13.39417	19.83948
0.8555	-1.00708	-1.10779	-3.42407	-10.57434	20.64514
0.856	2.31628	0.20142	4.53186	-13.797	15.60974
0.8565	1.61133	2.71912	14.50195	-0.30212	7.15027
0.857	-8.45947	3.42407	6.54602	3.12195	-7.45239
0.8575	-6.54602	6.74744	17.92603	14.50195	-17.01965
0.858	-12.48779	8.35876	28.50037	13.99841	-18.73169
0.8585	-15.20691	2.41699	23.8678	37.36267	-30.01099
0.859	-9.56726	3.92761	24.57275	69.79065	-25.98267
0.8595	-8.8623	9.66797	17.42249	54.38232	-28.29895
0.86	-4.22974	3.92761	12.5885	54.98657	-23.36426
0.8605	-4.22974	8.7616	6.44531	25.37842	-23.46497
0.861	-7.25098	1.61133	-8.7616	15.1062	-18.02673
0.8615	-9.36584	3.92761	-10.57434	12.5885	-12.28638
0.862	-6.14319	5.84106	-10.77576	-10.87646	2.31628
0.8625	-6.2439	16.41541	-6.3446	-48.64197	5.23682
0.863	-3.92761	26.68762	-6.14319	-45.62073	15.91187
0.8635	2.92053	26.48621	-7.15027	-38.06763	18.12744
0.864	10.0708	23.06213	0.70496	-14.90479	6.94885
0.8645	8.66089	14.70337	8.7616	-15.81116	-5.33752
0.865	6.94885	4.12903	-5.94177	-8.45947	-1.51062
0.8655	7.75452	-12.68921	-7.15027	-5.13611	-2.41699
0.866	7.15027	-49.0448	-0.50354	0.10071	-10.37292
0.8665	10.37292	-52.67029	0.70496	-10.37292	-5.53894
0.867	13.59558	-21.75293	6.84814	-12.5885	0.70496
0.8675	10.77576	-12.78992	-0.90637	-18.02673	3.32336
0.868	3.42407	-20.84656	-21.24939	-10.57434	12.99133
0.8685	-8.35876	-18.73169	-29.70886	0.10071	12.99133
0.869	-5.53894	-22.76001	-30.31311	-13.99841	7.04956
0.8695	-6.04248	-28.09753	-11.58142	-16.81824	5.74036
0.87	-19.53735	-28.29895	9.16443	3.42407	-1.51062
0.8705	-21.95435	-25.07629	8.8623	28.60107	3.8269
0.871	-18.22815	-18.42957	3.02124	13.99841	1.00708
0.8715	-14.19983	-11.78284	-6.74744	9.36584	5.63965
0.872	-6.74744	-4.12903	-7.95593	1.61133	-1.51062
0.8725	-4.73328	9.16443	-6.94885	-9.56726	-5.94177
0.873	3.7262	10.17151	-5.74036	-15.81116	-10.27222
0.8735	1.71204	23.46497	-6.94885	-14.19983	-13.89771
0.874	7.25098	29.10461	-4.63257	-2.41699	-10.67505
0.8745	1.81274	26.58691	-10.97717	38.06763	-12.68921
0.875	1.3092	16.51611	-17.92603	54.48303	-3.12195
0.8755	2.61841	16.71753	-20.84656	21.45081	-3.52478
0.876	-2.5177	0.60425	-24.67346	-1.91345	-4.22974
0.8765	-8.05664	-12.28638	-18.42957	-19.53735	-4.22974
0.877	-5.74036	-12.99133	-10.87646	-17.72461	-6.3446
0.8775	-8.15735	-13.797	6.2439	-13.19275	-4.12903
0.878	-10.17151	-15.81116	-0.10071	-10.17151	-1.10779
0.8785	-6.84814	-20.74585	3.32336	-9.76868	2.41699
0.879	-9.36584	-16.01257	1.40991	-10.97717	6.54602
0.8795	-8.7616	-13.59558	-3.52478	-14.50195	5.33752
0.88	-6.94885	-13.69629	3.22266	-18.42957	12.08496
0.8805	-8.05664	-12.99133	2.5177	-12.18567	9.06372
0.881	-6.2439	-13.09204	5.0354	-13.59558	-1.61133
0.8815	-1.10779	-6.2439	0.50354	-23.36426	-12.5885
0.882	-1.91345	-0.10071	-1.2085	-32.7301	-21.75293
0.8825	-2.11487	4.53186	-6.04248	-32.93152	-14.40125
0.883	-6.54602	-4.93469	-6.54602	-37.86621	-5.13611
0.8835	1.10779	-3.42407	-5.43823	-35.2478	-5.53894
0.884	-4.02832	-0.50354	-0.90637	-15.20691	-12.38708
0.8845	-8.35876	0.90637	8.35876	-0.50354	-14.09912
0.885	-8.8623	-6.2439	14.60266	22.6593	-7.65381
0.8855	-0.10071	-9.97009	-1.91345	50.15259	2.31628
0.886	-4.33044	-8.15735	-17.92603	56.90002	13.99841
0.8865	-7.15027	-8.45947	-19.53735	53.97949	12.48779
0.887	-3.7262	-5.33752	-15.20691	81.06995	17.12036
0.8875	1.71204	-6.94885	-13.49487	52.56958	14.19983
0.888	3.92761	0.10071	-11.2793	16.61682	12.68921
0.8885	-3.22266	-1.2085	-11.98425	2.21558	5.0354
0.889	-1.2085	-1.51062	-10.57434	-10.37292	4.53186
0.8895	-3.02124	-3.42407	-7.35168	-14.60266	-3.52478
0.89	-5.63965	-2.81982	-8.45947	-12.18567	-2.5177
0.8905	-6.74744	1.51062	-5.74036	-15.50903	-6.74744
0.891	-5.0354	3.92761	-0.10071	-16.51611	-5.13611
0.8915	-2.31628	1.71204	-4.73328	-11.98425	-2.71912
0.892	-4.63257	-2.11487	-4.73328	-12.38708	-3.42407
0.8925	-1.2085	-2.71912	-4.53186	21.04797	-4.12903
0.893	-1.10779	-7.5531	4.53186	29.40674	-0.20142
0.8935	-3.12195	1.71204	9.66797	16.21399	0.60425
0.894	-11.88354	-2.11487	15.20691	-4.33044	4.02832
0.8945	-7.35168	0	11.68213	-13.49487	4.63257
0.895	-5.53894	1.71204	3.02124	-5.13611	-5.84106
0.8955	6.74744	4.33044	5.13611	-1.51062	-4.12903
0.896	4.93469	2.5177	5.94177	5.74036	2.31628
0.8965	5.0354	-3.52478	5.33752	-6.3446	-1.81274
0.897	5.63965	16.61682	-0.80566	-16.61682	-1.00708
0.8975	-0.10071	7.75452	3.42407	-17.42249	-2.21558
0.898	-4.83398	6.64673	3.32336	-8.05664	-4.12903
0.8985	-1.81274	-0.90637	-1.10779	1.81274	-9.36584
0.899	-2.41699	-4.73328	-9.06372	5.53894	-4.12903
0.8995	0.30212	-8.05664	-11.48071	2.01416	-7.15027
0.9	1.51062	-2.11487	-9.36584	2.11487	-7.95593
0.9005	-4.73328	-0.70496	-11.78284	-5.13611	2.71912
0.901	-0.50354	-9.06372	-12.68921	5.43823	-1.3092
0.9015	-12.48779	-6.3446	0.40283	1.61133	-11.38
0.902	-5.13611	-8.96301	-4.63257	7.65381	-9.36584
0.9025	-7.04956	8.05664	-3.92761	12.28638	-7.5531
0.903	-10.17151	4.33044	-0.30212	10.37292	-10.97717
0.9035	-4.63257	-9.36584	-5.43823	8.35876	-4.33044
0.904	-8.35876	-26.68762	-6.44531	1.3092	0.20142
0.9045	0.30212	-34.64355	-4.12903	-18.53027	6.94885
0.905	-2.5177	-36.15417	-1.71204	-20.54443	1.00708
0.9055	-2.41699	-40.1825	-5.53894	6.54602	-13.797
0.906	-6.74744	-36.25488	-14.09912	18.02673	-7.15027
0.9065	5.23682	-38.36975	-30.01099	3.32336	-3.12195
0.907	0	-42.59949	-20.94727	-19.23523	-3.8269
0.9075	-3.52478	-32.02515	6.44531	-19.83948	5.33752
0.908	2.11487	-14.30054	14.30054	-25.57983	8.15735
0.9085	3.22266	25.177	-4.73328	0.90637	8.25806
0.909	-1.40991	61.53259	-13.59558	5.0354	-4.43115
0.9095	-0.10071	47.33276	2.41699	-4.33044	-6.3446
0.91	-9.16443	19.13452	19.63806	-16.81824	3.92761
0.9105	-12.99133	4.12903	21.75293	-25.68054	7.5531
0.911	-5.33752	6.04248	9.76868	-17.72461	7.5531
0.9115	-8.15735	2.21558	9.26514	-13.59558	-1.40991
0.912	-7.04956	1.71204	4.22974	-6.74744	-0.20142
0.9125	-8.96301	1.71204	8.7616	20.44373	-8.45947
0.913	-3.32336	-0.10071	0.50354	20.04089	-0.10071
0.9135	-4.73328	0.10071	-4.22974	-1.71204	2.31628
0.914	1.91345	9.66797	-2.21558	-8.56018	-2.11487
0.9145	6.54602	2.5177	-4.12903	-12.78992	2.11487
0.915	1.10779	4.33044	-7.35168	-2.61841	3.42407
0.9155	-10.87646	2.31628	-1.91345	17.82532	-5.23682
0.916	-9.16443	5.63965	1.81274	16.3147	-15.40833
0.9165	-3.8269	4.22974	-7.25098	20.34302	-15.20691
0.917	-6.94885	5.63965	-7.85522	20.34302	-10.17151
0.9175	4.53186	7.75452	-17.12036	21.3501	2.11487
0.918	3.42407	7.04956	-7.15027	2.92053	-4.63257
0.9185	0.70496	4.12903	-9.56726	-1.81274	5.23682
0.919	3.7262	-11.78284	-11.17859	-13.69629	7.15027
0.9195	2.11487	-11.88354	-8.56018	-18.93311	10.97717
0.92	4.02832	-6.3446	-8.96301	-21.55151	13.49487
0.9205	4.33044	-5.74036	-0.60425	-10.0708	-1.40991
0.921	-4.43115	-5.0354	1.00708	3.32336	-7.85522
0.9215	-6.94885	-13.69629	-2.71912	-0.90637	11.07788
0.922	-5.74036	-15.40833	-3.7262	-10.37292	18.93311
0.9225	-5.43823	-10.27222	-0.60425	-14.90479	17.22107
0.923	1.61133	-15.50903	-4.53186	-14.40125	9.66797
0.9235	9.66797	-16.41541	5.63965	-23.16284	20.64514
0.924	4.93469	-6.14319	3.8269	-22.96143	2.92053
0.9245	-4.33044	-0.70496	20.44373	12.78992	-13.39417
0.925	-8.35876	16.3147	18.32886	26.48621	-14.80408
0.9255	-10.37292	19.43665	18.32886	20.74585	-6.54602
0.926	-6.44531	10.77576	9.46655	3.62549	-0.80566
0.9265	-4.53186	10.67505	13.09204	-0.90637	-7.04956
0.927	-6.04248	15.81116	13.797	-1.10779	-28.9032
0.9275	-11.88354	9.66797	14.60266	10.47363	-28.29895
0.928	-11.58142	8.56018	8.05664	15.60974	-27.89612
0.9285	-8.35876	3.52478	2.11487	22.15576	-38.57117
0.929	-6.2439	-0.70496	-12.99133	39.88037	-40.78674
0.9295	-2.11487	-5.0354	-25.68054	47.63489	-55.69153
0.93	-8.45947	-1.10779	-14.40125	56.29578	-63.44604
0.9305	-9.26514	8.56018	-3.8269	54.58374	-54.58374
0.931	-9.16443	9.06372	0.20142	43.20374	-56.90002
0.9315	-6.64673	13.29346	0.20142	33.9386	-57.60498
0.932	-15.60974	12.48779	-0.10071	28.39966	-45.72144
0.9325	-3.7262	3.52478	1.40991	21.3501	-38.67188
0.933	2.5177	8.05664	-1.81274	9.97009	-40.48462
0.9335	2.01416	0.50354	0.30212	13.99841	-43.50586
0.934	1.2085	-18.63098	6.2439	21.3501	-41.18958
0.9345	-6.74744	-26.78833	-11.07788	33.13293	-32.62939
0.935	-5.63965	-28.9032	-8.25806	21.55151	-28.19824
0.9355	-0.40283	-2.5177	11.38	-0.30212	-24.27063
0.936	-7.75452	-0.70496	11.07788	-17.01965	-2.71912
0.9365	-8.96301	-8.7616	14.09912	-21.65222	35.2478
0.937	-7.85522	-10.67505	-2.11487	-24.27063	53.97949
0.9375	-3.32336	-8.66089	-5.0354	-13.09204	60.4248
0.938	-7.15027	-4.53186	-4.12903	3.92761	39.57825
0.9385	-7.65381	-8.25806	-3.12195	5.84106	39.47754
0.939	-6.74744	-5.53894	-4.73328	-7.75452	27.29187
0.9395	-1.3092	-5.43823	-0.40283	-20.94727	30.2124
0.94	0.40283	-7.5531	-6.84814	-19.63806	27.99683
0.9405	-2.71912	-13.09204	-1.91345	-15.40833	25.98267
0.941	2.11487	-2.41699	-4.83398	-19.94019	22.25647
0.9415	-6.94885	-5.13611	-7.04956	-15.81116	26.08337
0.942	-2.31628	-2.81982	-10.27222	-28.09753	32.42798
0.9425	2.71912	-4.33044	-9.97009	-38.16833	30.31311
0.943	-2.21558	-0.30212	-12.18567	-30.41382	21.24939
0.9435	1.71204	4.63257	-2.71912	-5.23682	29.70886
0.944	-0.90637	-1.91345	-2.61841	-17.42249	37.46338
0.9445	-7.45239	-0.40283	2.21558	-22.86072	48.94409
0.945	1.3092	0.70496	-5.33752	-18.63098	46.12427
0.9455	2.31628	-3.42407	-7.75452	-22.45789	37.56409
0.946	2.5177	-2.41699	-7.45239	-27.59399	30.31311
0.9465	2.92053	-3.22266	-10.77576	-21.45081	26.98975
0.947	2.5177	-1.91345	-4.33044	-26.28479	24.37134
0.9475	-3.12195	-7.75452	-3.52478	-26.98975	20.74585
0.948	-10.17151	-7.65381	0.30212	-21.75293	23.66638
0.9485	-9.36584	-5.74036	1.10779	-37.7655	18.22815
0.949	-4.63257	-8.66089	1.10779	-47.8363	14.80408
0.9495	-7.35168	-3.92761	5.33752	-34.94568	2.92053
0.95	-13.39417	-4.43115	4.02832	1.51062	3.52478
0.9505	-3.12195	-7.95593	1.71204	34.24072	7.35168
0.951	-6.04248	-5.53894	1.3092	25.47913	8.25806
0.9515	-2.31628	4.93469	-2.71912	7.35168	5.84106
0.952	-0.70496	0.70496	-6.44531	4.63257	-0.50354
0.9525	-0.90637	11.07788	-13.39417	-1.91345	-4.73328
0.953	8.66089	11.88354	-19.73877	-13.59558	-0.10071
0.9535	3.92761	6.54602	-24.47205	-17.01965	1.2085
0.954	5.33752	-3.32336	-15.71045	-13.19275	4.53186
0.9545	-1.91345	-8.35876	-7.04956	-17.32178	-1.51062
0.955	-5.74036	-1.3092	7.65381	-28.29895	-7.45239
0.9555	-10.57434	-7.75452	5.0354	-28.09753	-13.09204
0.956	-9.76868	4.73328	1.91345	-26.08337	-11.68213
0.9565	1.3092	7.75452	-3.8269	-22.05505	-22.55859
0.957	-0.30212	18.63098	4.93469	-26.18408	-24.37134
0.9575	4.63257	12.68921	11.38	-32.83081	-20.04089
0.958	3.02124	4.53186	-4.73328	-36.25488	-10.87646
0.9585	-4.33044	-11.98425	12.99133	-49.0448	4.33044
0.959	-8.66089	-3.02124	44.11011	-32.52869	-7.5531
0.9595	-4.73328	1.61133	51.05896	-1.51062	-19.63806
0.96	1.71204	-1.81274	40.08179	13.797	-17.22107
0.9605	-4.22974	-8.56018	24.77417	13.797	-23.46497
0.961	-4.93469	-5.0354	23.8678	11.78284	-18.73169
0.9615	-9.97009	-11.88354	31.52161	14.60266	-21.14868
0.962	-5.74036	-7.45239	23.66638	2.5177	-27.29187
0.9625	-1.91345	-5.43823	-2.61841	-0.30212	-21.3501
0.963	1.51062	-11.17859	-27.89612	0.70496	-27.79541
0.9635	4.02832	-2.41699	-49.0448	8.56018	-27.29187
0.964	-3.52478	13.69629	-52.46887	28.70178	-28.09753
0.9645	-4.33044	29.70886	-32.62939	43.80798	-21.14868
0.965	-5.63965	34.44214	-11.78284	20.94727	-8.25806
0.9655	-5.53894	32.93152	3.7262	-1.10779	-0.10071
0.966	-3.52478	20.04089	2.01416	-3.02124	6.64673
0.9665	-0.10071	8.56018	-7.75452	-2.21558	9.97009
0.967	-0.10071	-10.37292	-0.10071	-5.74036	11.38
0.9675	-6.94885	-1.91345	0.10071	-5.33752	30.51453
0.968	-3.12195	-1.91345	-4.53186	-5.53894	27.49329
0.9685	-8.66089	-1.10779	-8.05664	-1.10779	19.63806
0.969	-7.5531	-10.97717	2.92053	-21.24939	13.797
0.9695	-7.5531	-12.5885	11.98425	-28.80249	19.03381
0.97	-6.94885	-9.86938	13.09204	-11.38	20.74585
0.9705	-7.5531	-4.22974	8.8623	13.69629	9.16443
0.971	-7.25098	-7.95593	29.70886	44.0094	1.91345
0.9715	-16.01257	-4.53186	39.37683	29.30603	-3.12195
0.972	-10.27222	-6.3446	31.62231	27.59399	4.43115
0.9725	-12.5885	-15.20691	13.39417	17.52319	3.52478
0.973	0.80566	-14.60266	4.02832	11.48071	8.7616
0.9735	1.71204	-15.20691	-5.84106	2.81982	4.53186
0.974	5.13611	-16.91895	-44.41223	11.2793	3.12195
0.9745	-5.13611	-20.84656	-62.13684	9.36584	9.26514
0.975	-2.71912	-14.30054	-46.02356	23.26355	19.03381
0.9755	-11.58142	-6.84814	-44.11011	13.797	20.04089
0.976	-3.8269	-6.3446	-41.18958	-5.23682	24.16992
0.9765	5.43823	-4.73328	-46.62781	-27.6947	24.47205
0.977	10.37292	1.3092	-46.82922	-42.90161	12.78992
0.9775	3.32336	0.30212	-23.26355	-48.64197	-3.32336
0.978	9.26514	3.22266	1.2085	-33.53577	-4.63257
0.9785	4.53186	5.33752	21.3501	-29.70886	-2.11487
0.979	-1.51062	13.09204	33.43506	-38.77258	-1.40991
0.9795	0.70496	23.06213	26.78833	-36.75842	-1.00708
0.98	2.31628	20.84656	16.41541	-37.26196	-9.97009
0.9805	5.53894	20.1416	18.93311	-43.60657	-10.37292
0.981	0.30212	12.89062	38.36975	-31.21948	-11.48071
0.9815	-4.63257	1.51062	33.13293	-23.56567	-3.92761
0.982	-4.73328	2.92053	12.48779	-3.22266	-14.80408
0.9825	-6.94885	0.30212	-33.73718	24.27063	-12.28638
0.983	-0.60425	-3.7262	-57.20215	63.64746	-20.84656
0.9835	4.83398	-3.12195	-39.57825	56.49719	-29.70886
0.984	-7.35168	-5.33752	6.44531	38.974	-35.2478
0.9845	-11.07788	-16.71753	34.54285	38.67188	-29.20532
0.985	-10.97717	-22.96143	34.54285	42.8009	-18.63098
0.9855	-11.58142	-25.27771	4.12903	57.10144	-24.97559
0.986	-18.42957	-13.99841	-20.24231	52.8717	-35.85205
0.9865	-10.27222	-10.27222	-16.01257	27.89612	-39.77966
0.987	-9.86938	-8.15735	-25.57983	3.62549	-22.76001
0.9875	-9.36584	-9.46655	-37.66479	-5.84106	-8.15735
0.988	-0.20142	-5.74036	-45.41931	-15.40833	-2.92053
0.9885	-0.80566	-4.33044	-40.98816	-47.8363	-1.91345
0.989	-0.50354	-0.10071	-37.66479	-90.23438	2.81982
0.9895	-4.53186	1.91345	-29.40674	-91.745	9.56726
0.99	-2.31628	5.23682	-5.43823	-74.52393	3.52478
0.9905	-4.53186	12.18567	17.22107	-22.15576	12.89062
0.991	-7.04956	10.87646	28.50037	56.09436	20.44373
0.9915	-2.5177	9.97009	31.11877	52.67029	22.76001
0.992	4.33044	12.89062	24.87488	9.76868	23.26355
0.9925	1.61133	16.81824	14.90479	-5.43823	15.40833
0.993	-2.21558	5.53894	27.29187	15.60974	11.98425
0.9935	1.00708	-0.10071	7.45239	40.2832	12.89062
0.994	-1.81274	-1.91345	-15.30762	43.20374	10.27222
0.9945	-9.16443	-14.80408	-14.40125	41.59241	7.35168
0.995	-11.07788	-31.82373	-10.37292	29.70886	8.45947
0.9955	-2.21558	-31.4209	1.3092	15.50903	3.62549
0.996	-9.97009	-31.32019	4.22974	10.57434	1.51062
0.9965	-7.25098	-13.19275	1.91345	12.68921	-2.81982
0.997	-16.11328	-10.17151	6.94885	10.0708	-5.33752
0.9975	-6.74744	-9.97009	6.54602	9.66797	-2.92053
0.998	-5.0354	-14.60266	1.3092	9.06372	-0.70496
0.9985	-5.33752	-3.02124	-2.01416	21.45081	-15.50903
0.999	-4.12903	-9.26514	-0.30212	34.74426	-18.63098
0.9995	-4.53186	-13.99841	-2.21558	31.32019	-8.45947
1	-5.0354	-10.67505	4.12903	18.22815	-3.02124
1.0005	-13.59558	-7.85522	5.74036	30.41382	-2.21558
1.001	-10.17151	-0.90637	1.10779	32.12585	-8.25806
1.0015	-0.30212	-8.15735	-2.71912	37.96692	-5.13611
1.002	0.10071	-11.48071	-2.81982	32.7301	2.92053
1.0025	2.11487	-10.17151	-3.32336	26.88904	-5.13611
1.003	-4.12903	-7.85522	-0.10071	24.97559	-12.89062
1.0035	-3.02124	-0.90637	0.80566	15.30762	0
1.004	-2.61841	-8.7616	-5.0354	12.89062	8.7616
1.0045	-0.90637	-2.5177	-3.92761	-2.31628	10.47363
1.005	-1.51062	-0.70496	-3.7262	-6.3446	9.86938
1.0055	-12.38708	-0.60425	-0.80566	-12.89062	12.99133
1.006	-5.74036	6.44531	-2.61841	-29.10461	4.93469
1.0065	-5.43823	3.7262	4.53186	-32.32727	13.797
1.007	1.51062	0.80566	10.37292	-31.4209	4.43115
1.0075	-0.50354	0.30212	10.27222	-32.42798	7.25098
1.008	-9.56726	-5.74036	16.21399	-22.35718	6.44531
1.0085	-15.20691	-10.97717	13.19275	5.74036	3.52478
1.009	-16.51611	-12.78992	-0.70496	26.48621	0.90637
1.0095	-11.58142	-13.09204	-10.57434	15.40833	7.35168
1.01	-8.45947	-1.91345	-18.73169	10.17151	-4.12903
1.0105	2.31628	-4.33044	-26.28479	0	-12.18567
1.011	9.06372	3.22266	-31.92444	-11.78284	-13.19275
1.0115	8.56018	6.94885	-28.60107	-2.41699	-32.22656
1.012	5.84106	7.75452	-7.5531	20.64514	-46.42639
1.0125	-3.32336	7.75452	-4.12903	19.63806	-46.22498
1.013	-7.95593	-3.8269	-2.31628	27.6947	-45.11719
1.0135	-10.77576	-2.21558	-9.66797	39.17542	-64.151
1.014	-9.36584	-0.30212	-9.97009	43.60657	-92.75208
1.0145	-4.83398	2.11487	-8.15735	57.50427	-136.96289
1.015	-10.77576	7.5531	-1.10779	51.46179	-161.63635
1.0155	-9.26514	10.77576	7.45239	24.16992	-183.18787
1.016	-4.12903	6.84814	10.77576	7.5531	-198.89832
1.0165	-2.41699	8.96301	16.41541	0.30212	-209.87549
1.017	0.60425	13.59558	27.09045	-13.89771	-201.31531
1.0175	-7.25098	12.28638	40.48462	-4.73328	-182.3822
1.018	-12.38708	4.83398	40.98816	25.57983	-173.11707
1.0185	-18.63098	6.54602	49.24622	26.28479	-142.60254
1.019	-7.5531	3.42407	39.07471	12.89062	-95.37048
1.0195	-3.12195	-3.02124	33.73718	12.48779	-50.95825
1.02	-7.95593	0.20142	35.54993	43.60657	-9.56726
1.0205	-12.28638	13.09204	40.58533	29.80957	21.65222
1.021	-10.77576	12.68921	37.7655	-7.75452	51.26038
1.0215	-6.3446	16.91895	22.96143	-28.70178	84.59473
1.022	-1.10779	0.40283	17.42249	-52.06604	129.61121
1.0225	7.95593	-5.13611	-4.33044	-60.02197	186.1084
1.023	6.94885	8.15735	-22.05505	-79.86145	243.00842
1.0235	6.74744	4.53186	-53.77808	-102.72217	257.40967
1.024	7.45239	-1.61133	-71.40198	-82.37915	254.79126
1.0245	13.19275	-13.69629	-88.52234	-45.52002	245.82825
1.025	21.55151	-37.96692	-70.3949	-58.71277	218.33496
1.0255	22.96143	-69.38782	-49.24622	-85.70251	181.073
1.026	7.35168	-50.65613	-32.52869	-69.68994	143.20679
1.0265	-0.40283	-32.7301	-26.28479	-58.20923	120.7489
1.027	-4.12903	-27.89612	-20.04089	-56.19507	102.62146
1.0275	-0.50354	-27.29187	-19.33594	-50.85754	74.12109
1.028	5.84106	-33.73718	-18.42957	-25.27771	44.11011
1.0285	11.78284	-39.67896	-5.74036	-13.49487	32.7301
1.029	9.36584	-44.41223	-2.31628	11.58142	19.53735
1.0295	12.48779	-47.7356	-2.11487	32.93152	21.24939
1.03	15.71045	-57.70569	-0.10071	18.63098	12.68921
1.0305	15.40833	-56.90002	7.15027	-5.53894	5.0354
1.031	10.27222	-51.36108	16.81824	-10.0708	4.93469
1.0315	9.26514	-44.91577	16.51611	-15.60974	0.90637
1.032	15.81116	-42.29736	9.86938	-13.09204	3.42407
1.0325	14.30054	-33.43506	6.84814	-5.13611	0.50354
1.033	3.62549	-12.68921	11.2793	12.5885	-2.71912
1.0335	-1.3092	-5.53894	-4.63257	12.48779	7.45239
1.034	-11.58142	9.76868	-10.47363	-1.2085	16.81824
1.0345	-20.84656	20.34302	-5.33752	-12.68921	18.12744
1.035	-25.27771	34.03931	-4.02832	-11.17859	17.92603
1.0355	-23.36426	43.70728	-4.33044	-0.70496	10.47363
1.036	-19.13452	41.59241	-6.64673	4.53186	9.56726
1.0365	-6.84814	30.01099	-5.94177	-20.64514	12.5885
1.037	-0.10071	22.45789	-12.5885	-20.24231	7.75452
1.0375	-10.97717	31.92444	0.90637	-19.73877	7.15027
1.038	-18.02673	41.08887	8.7616	-5.0354	2.11487
1.0385	-29.50745	39.57825	2.92053	-4.22974	1.71204
1.039	-33.23364	31.32019	4.02832	-22.96143	6.94885
1.0395	-18.22815	28.09753	6.54602	-29.80957	10.37292
1.04	-11.88354	22.55859	7.5531	-16.11328	-2.92053
1.0405	-11.48071	15.00549	-4.22974	4.93469	-0.10071
1.041	-5.63965	4.83398	-10.57434	1.00708	6.14319
1.0415	-6.3446	10.37292	-13.09204	28.70178	0.20142
1.042	-5.0354	-3.7262	-6.2439	22.25647	-0.70496
1.0425	-0.70496	-5.74036	-12.78992	0.10071	-1.51062
1.043	-4.43115	-3.02124	-19.23523	-8.35876	-1.91345
1.0435	9.66797	3.52478	-20.94727	-8.7616	-9.06372
1.044	6.14319	5.53894	-13.19275	-1.71204	-13.59558
1.0445	-4.12903	14.09912	-3.52478	-2.31628	-9.56726
1.045	2.31628	13.39417	-7.04956	-2.71912	-1.00708
1.0455	4.93469	16.61682	-12.28638	-19.03381	0.90637
1.046	-0.50354	21.75293	-4.53186	-33.63647	7.15027
1.0465	-2.81982	33.83789	-6.74744	-44.41223	1.81274
1.047	-4.73328	29.50745	-2.21558	-33.63647	-4.53186
1.0475	-7.95593	24.47205	-11.78284	-6.54602	-14.90479
1.048	-7.95593	12.99133	-1.81274	26.68762	-22.96143
1.0485	-9.26514	8.66089	2.92053	44.0094	-16.41541
1.049	-7.95593	4.93469	10.17151	39.67896	-19.63806
1.0495	-11.78284	-0.70496	6.64673	30.31311	-14.90479
1.05	-10.87646	5.43823	13.19275	14.19983	-25.47913
1.0505	-15.30762	0	21.65222	10.37292	-29.70886
1.051	-13.29346	-7.95593	32.42798	14.70337	-27.39258
1.0515	-9.26514	0.70496	23.8678	16.3147	-23.56567
1.052	-9.16443	-3.52478	19.83948	10.77576	-21.95435
1.0525	-7.5531	-10.57434	13.39417	12.5885	-21.55151
1.053	-11.48071	-7.95593	5.53894	7.5531	-12.08496
1.0535	-15.60974	-5.33752	6.54602	-5.43823	-13.99841
1.054	-13.49487	-7.95593	-13.49487	-1.00708	-6.54602
1.0545	-11.17859	-12.68921	-32.52869	-2.11487	-0.40283
1.055	-5.94177	-14.60266	-28.70178	-8.8623	0.10071
1.0555	-6.2439	-13.59558	-20.1416	2.5177	1.51062
1.056	-6.14319	-10.57434	-11.17859	0.40283	-10.17151
1.0565	-5.13611	-6.64673	-0.50354	-17.12036	-15.40833
1.057	-5.53894	-4.73328	5.43823	-24.06921	-24.87488
1.0575	-0.30212	-3.12195	23.8678	-23.8678	-22.76001
1.058	0.10071	-0.50354	24.57275	-25.88196	-24.57275
1.0585	-10.97717	8.25806	25.27771	-20.84656	-32.93152
1.059	0.50354	10.57434	33.33435	-7.15027	-24.97559
1.0595	2.31628	9.76868	21.04797	-11.98425	-12.89062
1.06	10.97717	7.95593	26.58691	-21.04797	-9.97009
1.0605	5.94177	5.0354	8.56018	-13.09204	-1.10779
1.061	4.53186	6.64673	-31.11877	-4.53186	8.35876
1.0615	3.8269	-0.30212	-42.49878	4.02832	-6.04248
1.062	3.42407	-3.32336	-44.41223	32.7301	-12.89062
1.0625	2.31628	1.91345	-43.20374	49.64905	-22.15576
1.063	2.5177	-0.70496	-28.50037	38.974	-22.25647
1.0635	2.92053	2.5177	-14.19983	18.93311	-9.56726
1.064	0.80566	-0.30212	-12.48779	-4.43115	2.71912
1.0645	-3.8269	2.21558	-4.73328	-7.35168	-7.15027
1.065	-2.11487	2.11487	8.15735	-4.63257	-5.74036
1.0655	-3.92761	8.56018	18.53027	-5.84106	-9.06372
1.066	-2.71912	8.45947	16.21399	5.94177	-4.12903
1.0665	0.70496	8.66089	13.69629	-5.63965	-5.53894
1.067	-1.40991	16.71753	25.177	-4.53186	-15.1062
1.0675	-8.96301	10.97717	22.6593	-4.53186	-11.17859
1.068	-8.66089	-6.84814	27.59399	5.84106	-7.04956
1.0685	-13.89771	-8.56018	29.50745	-3.92761	-10.57434
1.069	-15.20691	-7.5531	32.83081	10.37292	-6.54602
1.0695	-15.40833	-11.98425	26.08337	13.797	-6.64673
1.07	-8.96301	-5.74036	2.92053	10.27222	-19.83948
1.0705	0.70496	-2.5177	-17.32178	11.68213	-11.58142
1.071	2.5177	-11.2793	-11.07788	2.11487	8.05664
1.0715	3.92761	-18.02673	-0.70496	-9.26514	6.04248
1.072	-2.31628	-10.77576	18.22815	-25.177	0.30212
1.0725	-1.00708	-15.30762	24.87488	-25.98267	2.61841
1.073	-1.51062	-14.90479	22.05505	-18.02673	-14.90479
1.0735	-10.17151	-26.68762	37.96692	6.14319	-18.8324
1.074	-1.51062	-34.54285	25.27771	31.21948	-9.16443
1.0745	-4.22974	-24.06921	-5.23682	38.16833	-9.36584
1.075	-6.94885	-9.06372	-37.26196	51.05896	-15.30762
1.0755	-10.97717	-9.46655	-32.7301	43.20374	-12.38708
1.076	-8.96301	-13.59558	-17.92603	33.13293	-8.45947
1.0765	-8.35876	-17.82532	-10.17151	15.60974	-7.5531
1.077	-9.16443	-15.00549	-4.43115	18.12744	-9.46655
1.0775	-9.86938	-4.53186	0.70496	12.68921	-6.54602
1.078	-17.01965	-3.12195	8.45947	3.42407	-2.5177
1.0785	-17.12036	-4.73328	2.81982	-0.30212	-0.10071
1.079	-13.19275	-4.73328	-1.91345	3.92761	9.86938
1.0795	-2.71912	1.3092	-15.1062	-4.43115	7.35168
1.08	0.10071	4.63257	-17.42249	-28.9032	11.68213
1.0805	1.81274	5.94177	-29.60815	-40.68604	11.48071
1.081	22.76001	8.96301	-28.19824	-33.23364	13.59558
1.0815	24.27063	22.96143	-22.45789	-19.63806	26.18408
1.082	17.42249	16.41541	-29.91028	-8.45947	33.13293
1.0825	5.53894	20.1416	-32.83081	-1.81274	38.77258
1.083	9.06372	19.03381	-40.78674	-12.38708	36.35559
1.0835	6.94885	12.38708	-38.974	-24.16992	33.13293
1.084	16.81824	3.7262	-38.16833	-36.15417	21.45081
1.0845	11.58142	7.5531	-28.09753	-25.98267	10.17151
1.085	5.0354	1.71204	-19.03381	1.91345	-6.94885
1.0855	-4.22974	-9.46655	-11.88354	37.26196	-15.81116
1.086	-10.17151	-20.24231	-23.76709	21.14868	-13.49487
1.0865	-11.07788	-21.85364	-34.74426	-4.12903	-15.60974
1.087	-8.56018	-24.87488	-14.70337	-26.58691	-10.17151
1.0875	-9.86938	-37.46338	-19.63806	-20.94727	7.25098
1.088	-15.1062	-35.95276	-20.24231	-56.49719	22.25647
1.0885	-23.26355	-14.80408	23.16284	-79.05579	6.64673
1.089	-9.46655	-5.94177	28.9032	-64.45312	-3.02124
1.0895	-5.43823	-4.12903	38.974	-49.24622	-19.63806
1.09	-3.92761	-7.35168	78.25012	-44.71436	-32.83081
1.0905	-10.37292	-8.96301	94.16199	-55.69153	-28.29895
1.091	-7.95593	-5.63965	101.31226	-49.54834	-34.74426
1.0915	-7.35168	12.89062	67.37366	-40.1825	-35.95276
1.092	-6.04248	43.50586	11.98425	-11.98425	-55.89294
1.0925	-12.18567	72.61047	-28.09753	53.67737	-88.0188
1.093	-9.46655	78.65295	-13.99841	95.77332	-100.70801
1.0935	2.71912	33.03223	-39.07471	131.42395	-110.87952
1.094	-3.52478	-15.20691	-43.50586	114.20288	-110.47668
1.0945	-2.01416	-45.11719	-3.22266	79.45862	-117.32483
1.095	-16.01257	-29.10461	19.73877	74.92676	-116.82129
1.0955	-16.01257	-9.46655	22.35718	71.80481	-103.22571
1.096	-22.35718	-9.06372	31.32019	74.32251	-109.3689
1.0965	-22.86072	-9.97009	52.56958	90.93933	-113.29651
1.097	-10.37292	-13.39417	44.81506	107.05261	-102.01721
1.0975	-9.16443	-14.40125	49.64905	110.27527	-94.86694
1.098	-6.14319	-11.98425	53.87878	73.61755	-91.8457
1.0985	-3.92761	-6.74744	52.46887	42.19666	-65.56091
1.099	-9.16443	-13.59558	47.03064	18.53027	-26.28479
1.0995	-6.74744	-25.27771	37.66479	4.93469	11.68213
1.1	-8.7616	-21.24939	20.24231	0.30212	35.65063
1.1005	-9.26514	-15.91187	-22.96143	7.25098	43.90869
1.101	-7.95593	-12.18567	-38.16833	-0.40283	71.7041
1.1015	-9.36584	-12.78992	-49.54834	-22.45789	102.92358
1.102	-5.43823	-12.18567	-48.94409	-43.40515	117.72766
1.1025	-3.22266	-17.12036	-29.30603	-64.85596	124.87793
1.103	-6.64673	-12.5885	-25.177	-69.08569	133.74023
1.1035	2.21558	-22.86072	-27.29187	-63.64746	128.60413
1.104	7.04956	-19.63806	-18.32886	-40.1825	105.13916
1.1045	7.15027	-20.74585	-14.09912	-32.52869	87.91809
1.105	5.0354	-23.66638	-15.00549	-39.47754	77.44446
1.1055	10.47363	-11.98425	-19.33594	-36.35559	75.22888
1.106	3.22266	-20.34302	-16.41541	-33.83789	67.17224
1.1065	-1.00708	-19.33594	-13.59558	-31.62231	49.54834
1.107	-2.92053	-14.40125	-0.30212	-24.47205	37.26196
1.1075	1.3092	-6.14319	-10.87646	-22.96143	30.01099
1.108	-4.02832	0.50354	-4.83398	-26.68762	27.89612
1.1085	-2.01416	15.1062	-8.56018	-32.62939	27.39258
1.109	-5.13611	16.81824	-6.04248	-38.974	11.07788
1.1095	-3.7262	7.85522	26.58691	-29.20532	-17.01965
1.11	0.10071	10.77576	38.36975	-26.68762	-12.38708
1.1105	-8.35876	15.81116	13.59558	-24.67346	-5.13611
1.111	-8.66089	6.64673	-22.55859	-16.81824	6.14319
1.1115	-4.73328	5.53894	-36.15417	-19.13452	-4.73328
1.112	-8.66089	1.10779	-15.00549	3.12195	-24.87488
1.1125	-7.85522	-16.91895	11.88354	23.96851	-21.95435
1.113	-5.94177	-21.3501	16.11328	19.83948	-15.60974
1.1135	-0.80566	-30.91736	13.19275	1.81274	3.52478
1.114	2.71912	-17.92603	4.22974	-19.83948	20.64514
1.1145	5.33752	-27.29187	-2.5177	-45.41931	40.68604
1.115	8.7616	-28.39966	-2.11487	-43.60657	24.77417
1.1155	10.37292	-31.52161	-20.64514	-48.64197	14.30054
1.116	11.98425	-18.63098	-13.39417	-60.4248	3.02124
1.1165	10.97717	-20.1416	-4.63257	-72.40906	-11.98425
1.117	6.14319	-0.90637	18.63098	-58.51135	-24.47205
1.1175	6.44531	23.16284	29.60815	-24.57275	-8.45947
1.118	5.53894	27.6947	6.44531	-3.8269	15.60974
1.1185	2.92053	65.66162	-21.75293	-6.64673	28.70178
1.119	-5.84106	87.51526	-30.61523	-16.11328	18.42957
1.1195	-10.77576	77.64587	8.96301	-0.80566	-13.797
1.12	-15.1062	43.00232	29.60815	10.97717	-35.14709
1.1205	-12.28638	-3.02124	33.23364	17.42249	-47.33276
1.121	-12.5885	-36.35559	52.26746	64.25171	-61.02905
1.1215	-2.92053	-41.79382	50.2533	91.24146	-41.29028
1.122	-4.33044	-33.9386	29.91028	50.85754	-0.10071
1.1225	0.70496	-9.06372	-1.40991	26.68762	21.45081
1.123	-3.8269	2.01416	-42.49878	19.94019	21.3501
1.1235	-1.61133	1.2085	-47.43347	-3.52478	6.64673
1.124	6.64673	34.24072	-56.39648	-18.22815	-4.33044
1.1245	10.57434	84.19189	-58.81348	-35.44922	-19.53735
1.125	4.33044	67.07153	-39.98108	-26.68762	-40.2832
1.1255	0.70496	26.3855	-26.58691	21.55151	-8.45947
1.126	4.12903	-0.20142	-30.81665	21.24939	38.87329
1.1265	5.13611	-9.16443	-10.37292	-2.21558	41.08887
1.127	10.57434	-11.38	21.85364	-6.3446	9.16443
1.1275	12.38708	-29.60815	30.71594	5.63965	10.77576
1.128	23.26355	-37.96692	-5.53894	7.95593	32.02515
1.1285	24.87488	-52.771	-43.50586	4.12903	49.34692
1.129	16.71753	-67.37366	-42.59949	-12.08496	43.90869
1.1295	8.05664	-61.73401	-20.24231	3.7262	32.32727
1.13	7.95593	-48.03772	-12.28638	34.74426	18.32886
1.1305	3.52478	-42.39807	-9.97009	44.41223	3.8269
1.131	-1.00708	-33.73718	-24.06921	8.96301	9.36584
1.1315	11.2793	-32.22656	-36.95984	-3.42407	5.74036
1.132	12.89062	-27.09045	-33.63647	7.04956	22.45789
1.1325	1.00708	-28.70178	-20.04089	6.3446	28.60107
1.133	-18.8324	-19.03381	5.53894	-9.97009	38.77258
1.1335	-26.98975	-1.81274	15.00549	-21.65222	46.5271
1.134	-26.68762	-7.35168	1.10779	-26.98975	48.84338
1.1345	-10.57434	-6.74744	-18.63098	-14.80408	44.51294
1.135	-10.87646	-9.16443	-21.45081	3.52478	39.57825
1.1355	-18.42957	-2.71912	-37.7655	53.27454	25.98267
1.136	-19.63806	10.57434	-32.22656	48.64197	17.01965
1.1365	-20.64514	15.91187	-19.13452	13.59558	-5.94177
1.137	-16.11328	21.24939	-4.93469	4.53186	-23.56567
1.1375	-15.1062	39.88037	0.10071	2.5177	-19.83948
1.138	-12.18567	48.84338	-2.31628	-14.70337	-16.41541
1.1385	-7.04956	53.77808	-4.43115	-25.07629	-15.60974
1.139	-7.35168	49.14551	-10.17151	-16.71753	-29.00391
1.1395	-14.19983	44.31152	-13.09204	-10.47363	-18.32886
1.14	-5.43823	29.80957	-21.24939	-15.1062	0.50354
1.1405	-8.15735	20.44373	-15.40833	-29.30603	12.99133
1.141	1.71204	11.38	-25.68054	-59.31702	30.2124
1.1415	-1.00708	-2.31628	-28.29895	-86.30676	33.63647
1.142	-1.51062	-21.3501	-19.03381	-62.03613	16.3147
1.1425	0.30212	-20.24231	-3.32336	-18.22815	0.50354
1.143	-5.23682	-9.56726	-20.64514	5.53894	4.83398
1.1435	-2.41699	-3.52478	-23.8678	13.797	-4.12903
1.144	-6.3446	-17.6239	-31.01807	27.09045	0.90637
1.1445	-13.39417	-20.04089	-40.58533	23.26355	2.11487
1.145	-13.99841	-6.74744	32.83081	-16.01257	-0.90637
1.1455	-12.68921	1.2085	41.18958	-19.13452	-1.81274
1.146	-10.67505	12.18567	14.19983	-26.68762	2.92053
1.1465	-13.797	0.70496	63.54675	-37.16125	8.35876
1.147	-11.07788	23.8678	110.47668	-55.79224	0.70496
1.1475	0.10071	26.08337	83.08411	-57.40356	-11.98425
1.148	-7.35168	28.39966	40.98816	-13.99841	-37.56409
1.1485	-4.73328	19.94019	4.33044	28.39966	-41.18958
1.149	3.8269	-4.73328	-41.4917	36.95984	-30.51453
1.1495	6.54602	-7.45239	-93.15491	59.61914	-50.15259
1.15	3.92761	-5.0354	-53.27454	23.06213	-72.30835
1.1505	3.02124	-6.3446	-6.94885	-20.34302	-83.18481
1.151	-6.64673	-2.21558	6.94885	-16.71753	-68.28003
1.1515	-15.81116	-7.35168	-12.38708	-9.06372	-58.00781
1.152	-10.27222	-24.27063	-8.56018	-13.29346	-68.78357
1.1525	-9.06372	-33.13293	22.86072	22.45789	-102.62146
1.153	-12.18567	-38.16833	58.71277	85.5011	-111.48376
1.1535	-2.92053	-31.52161	77.24304	115.31067	-91.44287
1.154	-0.90637	-12.89062	62.43896	104.03137	-64.55383
1.1545	4.33044	-7.75452	64.151	86.50818	-54.0802
1.155	-1.51062	-2.11487	48.64197	107.65686	-39.47754
1.1555	-5.74036	-12.38708	15.20691	104.03137	-12.28638
1.156	-6.94885	-22.05505	-2.61841	74.62463	17.22107
1.1565	-0.30212	-20.24231	-19.83948	36.25488	45.11719
1.157	13.19275	-20.74585	-10.57434	-5.74036	54.98657
1.1575	24.87488	-12.18567	-6.64673	-39.57825	43.20374
1.158	14.90479	-5.0354	4.93469	-54.38232	27.29187
1.1585	1.91345	-5.84106	-11.68213	-11.78284	32.32727
1.159	-9.86938	-28.09753	-26.68762	0	39.37683
1.1595	-11.88354	-35.65063	-24.67346	-2.5177	58.71277
1.16	-8.96301	-44.31152	-22.15576	-23.36426	63.54675
1.1605	8.7616	-58.71277	-15.1062	-24.47205	70.19348
1.161	15.91187	-60.52551	-15.30762	-35.14709	75.02747
1.1615	29.50745	-62.13684	-15.60974	-49.54834	70.3949
1.162	18.63098	-66.6687	-12.99133	-52.67029	50.85754
1.1625	13.59558	-62.13684	2.61841	-24.27063	23.26355
1.163	6.94885	-51.66321	14.80408	-5.74036	18.22815
1.1635	4.43115	-25.68054	0.90637	-9.36584	20.64514
1.164	-6.2439	1.71204	8.8623	-11.78284	15.00549
1.1645	-13.99841	8.7616	11.78284	-7.5531	10.57434
1.165	-0.90637	39.57825	-8.66089	5.84106	12.48779
1.1655	3.8269	64.65454	-26.08337	16.11328	4.02832
1.166	6.94885	47.63489	-30.91736	13.49487	10.0708
1.1665	6.44531	19.73877	-16.41541	9.46655	6.3446
1.167	-6.3446	7.5531	-7.75452	12.28638	-8.35876
1.1675	-10.77576	1.00708	-4.63257	10.17151	-6.2439
1.168	-10.77576	7.15027	-5.53894	0.60425	-17.42249
1.1685	-15.60974	31.72302	1.81274	-8.7616	-14.19983
1.169	-20.34302	46.82922	5.53894	-16.11328	-10.37292
1.1695	-28.19824	45.72144	2.31628	-9.26514	-11.07788
1.17	-35.44922	38.16833	3.52478	7.35168	-29.00391
1.1705	-42.19666	40.08179	15.40833	21.24939	-51.15967
1.171	-43.20374	44.11011	4.12903	20.84656	-49.0448
1.1715	-23.06213	25.47913	-5.94177	14.90479	-56.5979
1.172	-19.73877	18.63098	-4.12903	12.89062	-34.84497
1.1725	-28.09753	36.05347	-3.62549	13.797	-32.12585
1.173	-32.02515	63.74817	-13.19275	6.74744	-18.32886
1.1735	-30.91736	76.94092	-29.50745	0.50354	-15.81116
1.174	-23.46497	60.62622	-44.61365	-11.58142	-12.68921
1.1745	-14.60266	38.77258	-51.5625	-13.59558	-18.53027
1.175	-8.66089	11.98425	-20.24231	-23.56567	15.1062
1.1755	2.61841	5.94177	6.14319	-45.41931	32.42798
1.176	-1.3092	8.7616	38.77258	-64.95667	32.62939
1.1765	8.8623	-2.61841	70.99915	-63.34534	28.29895
1.177	-1.3092	0.50354	68.17932	-28.29895	16.41541
1.1775	1.91345	-5.74036	30.31311	11.17859	-7.5531
1.178	12.5885	-5.0354	31.72302	-7.85522	-12.5885
1.1785	7.35168	-18.8324	48.13843	-46.5271	-8.56018
1.179	27.79541	-27.49329	78.65295	-45.82214	-21.85364
1.1795	29.10461	-44.0094	47.03064	-16.51611	-21.24939
1.18	19.73877	-63.74817	24.97559	-17.6239	-24.16992
1.1805	10.27222	-69.38782	15.40833	0.30212	-41.89453
1.181	-7.04956	-101.61438	-6.74744	45.01648	-52.36816
1.1815	-10.77576	-125.07935	25.37842	30.2124	-57.70569
1.182	2.01416	-82.88269	61.43188	-10.77576	-41.08887
1.1825	-1.61133	-25.57983	14.60266	-29.91028	-8.7616
1.183	-1.91345	-2.71912	-21.55151	-33.53577	10.17151
1.1835	-5.74036	24.87488	-24.06921	-69.08569	34.94568
1.184	-2.21558	51.76392	-26.68762	-61.43188	36.4563
1.1845	-11.58142	65.76233	-31.11877	-26.58691	17.01965
1.185	-7.5531	43.10303	-64.85596	27.09045	35.75134
1.1855	-6.44531	39.17542	-76.84021	40.38391	27.79541
1.186	-11.58142	51.5625	-39.77966	43.80798	9.26514
1.1865	-5.84106	41.89453	-7.5531	46.32568	4.43115
1.187	-10.17151	23.46497	-0.20142	32.83081	10.0708
1.1875	-7.75452	30.81665	-16.81824	47.7356	13.39417
1.188	-11.68213	39.07471	-11.07788	45.62073	-12.08496
1.1885	-1.3092	22.15576	-16.71753	45.01648	-16.61682
1.189	-4.53186	12.18567	-28.50037	39.98108	-12.99133
1.1895	-3.92761	-4.73328	-33.83789	43.50586	-1.00708
1.19	-1.81274	-9.97009	-24.06921	25.27771	2.71912
1.1905	-8.96301	-11.17859	-20.84656	-1.40991	12.99133
1.191	-13.19275	-18.8324	-16.91895	-13.39417	17.42249
1.1915	-16.21399	-11.2793	-5.0354	-16.81824	10.57434
1.192	-17.42249	-8.56018	-1.91345	-14.60266	16.01257
1.1925	-11.78284	-2.5177	3.52478	-32.12585	28.9032
1.193	-9.16443	-1.00708	0.60425	-33.13293	31.52161
1.1935	-7.5531	2.71912	-0.60425	-29.30603	26.48621
1.194	-1.2085	5.94177	-6.2439	-31.32019	17.72461
1.1945	-0.90637	2.31628	-4.12903	-29.80957	2.61841
